"CCV(ST3) - RawData"
"Wavelength nm.","T%"
420.00,61.9583
420.10,62.0514
420.20,62.1811
420.30,62.3367
420.40,62.5015
420.50,62.6678
420.60,62.8311
420.70,62.9807
420.80,63.1241
420.90,63.2584
421.00,63.3942
421.10,63.5269
421.20,63.6642
421.30,63.7985
421.40,63.9328
421.50,64.0656
421.60,64.1953
421.70,64.3204
421.80,64.4470
421.90,64.5645
422.00,64.6866
422.10,64.8041
422.20,64.9246
422.30,65.0391
422.40,65.1535
422.50,65.2695
422.60,65.3824
422.70,65.4892
422.80,65.5975
422.90,65.7028
423.00,65.8066
423.10,65.9073
423.20,66.0049
423.30,66.0980
423.40,66.1987
423.50,66.2933
423.60,66.3849
423.70,66.4795
423.80,66.5787
423.90,66.6748
424.00,66.7664
424.10,66.8564
424.20,66.9449
424.30,67.0395
424.40,67.1280
424.50,67.2119
424.60,67.2958
424.70,67.3813
424.80,67.4622
424.90,67.5339
425.00,67.6117
425.10,67.6804
425.20,67.7490
425.30,67.8192
425.40,67.8848
425.50,67.9489
425.60,68.0069
425.70,68.0649
425.80,68.1229
425.90,68.1824
426.00,68.2404
426.10,68.2983
426.20,68.3609
426.30,68.4174
426.40,68.4708
426.50,68.5257
426.60,68.5745
426.70,68.6264
426.80,68.6752
426.90,68.7164
427.00,68.7576
427.10,68.7958
427.20,68.8416
427.30,68.8904
427.40,68.9346
427.50,68.9835
427.60,69.0292
427.70,69.0643
427.80,69.1010
427.90,69.1345
428.00,69.1696
428.10,69.2017
428.20,69.2383
428.30,69.2734
428.40,69.3069
428.50,69.3359
428.60,69.3680
428.70,69.3939
428.80,69.4199
428.90,69.4397
429.00,69.4626
429.10,69.4824
429.20,69.4962
429.30,69.5038
429.40,69.5206
429.50,69.5343
429.60,69.5465
429.70,69.5602
429.80,69.5801
429.90,69.5999
430.00,69.6121
430.10,69.6228
430.20,69.6365
430.30,69.6442
430.40,69.6548
430.50,69.6579
430.60,69.6640
430.70,69.6716
430.80,69.6762
430.90,69.6808
431.00,69.6869
431.10,69.6899
431.20,69.6884
431.30,69.6838
431.40,69.6777
431.50,69.6655
431.60,69.6533
431.70,69.6426
431.80,69.6335
431.90,69.6213
432.00,69.6152
432.10,69.6045
432.20,69.5923
432.30,69.5862
432.40,69.5740
432.50,69.5663
432.60,69.5572
432.70,69.5450
432.80,69.5328
432.90,69.5206
433.00,69.5053
433.10,69.4885
433.20,69.4717
433.30,69.4565
433.40,69.4351
433.50,69.4138
433.60,69.3970
433.70,69.3756
433.80,69.3527
433.90,69.3314
434.00,69.3100
434.10,69.2902
434.20,69.2719
434.30,69.2505
434.40,69.2261
434.50,69.2001
434.60,69.1711
434.70,69.1422
434.80,69.1055
434.90,69.0765
435.00,69.0460
435.10,69.0201
435.20,68.9880
435.30,68.9606
435.40,68.9346
435.50,68.9102
435.60,68.8843
435.70,68.8568
435.80,68.8278
435.90,68.7958
436.00,68.7668
436.10,68.7332
436.20,68.7027
436.30,68.6722
436.40,68.6386
436.50,68.6081
436.60,68.5745
436.70,68.5425
436.80,68.5089
436.90,68.4708
437.00,68.4341
437.10,68.3990
437.20,68.3609
437.30,68.3212
437.40,68.2816
437.50,68.2449
437.60,68.1992
437.70,68.1503
437.80,68.1122
437.90,68.0695
438.00,68.0298
438.10,67.9916
438.20,67.9596
438.30,67.9214
438.40,67.8802
438.50,67.8436
438.60,67.8040
438.70,67.7643
438.80,67.7261
438.90,67.6865
439.00,67.6514
439.10,67.6102
439.20,67.5781
439.30,67.5476
439.40,67.5140
439.50,67.4774
439.60,67.4362
439.70,67.3965
439.80,67.3538
439.90,67.3096
440.00,67.2623
440.10,67.2195
440.20,67.1753
440.30,67.1326
440.40,67.0898
440.50,67.0471
440.60,67.0059
440.70,66.9586
440.80,66.9174
440.90,66.8716
441.00,66.8274
441.10,66.7892
441.20,66.7496
441.30,66.7099
441.40,66.6733
441.50,66.6336
441.60,66.5970
441.70,66.5573
441.80,66.5207
441.90,66.4810
442.00,66.4398
442.10,66.4001
442.20,66.3605
442.30,66.3193
442.40,66.2811
442.50,66.2445
442.60,66.2048
442.70,66.1652
442.80,66.1270
442.90,66.0919
443.00,66.0553
443.10,66.0233
443.20,65.9958
443.30,65.9622
443.40,65.9271
443.50,65.8890
443.60,65.8524
443.70,65.8112
443.80,65.7745
443.90,65.7379
444.00,65.6967
444.10,65.6601
444.20,65.6235
444.30,65.5853
444.40,65.5441
444.50,65.5121
444.60,65.4770
444.70,65.4449
444.80,65.4114
444.90,65.3763
445.00,65.3442
445.10,65.3046
445.20,65.2740
445.30,65.2420
445.40,65.2084
445.50,65.1733
445.60,65.1382
445.70,65.1016
445.80,65.0665
445.90,65.0330
446.00,65.0009
446.10,64.9704
446.20,64.9414
446.30,64.9094
446.40,64.8773
446.50,64.8453
446.60,64.8163
446.70,64.7842
446.80,64.7507
446.90,64.7217
447.00,64.6942
447.10,64.6652
447.20,64.6362
447.30,64.6088
447.40,64.5844
447.50,64.5584
447.60,64.5325
447.70,64.5020
447.80,64.4714
447.90,64.4440
448.00,64.4135
448.10,64.3829
448.20,64.3524
448.30,64.3311
448.40,64.3082
448.50,64.2883
448.60,64.2609
448.70,64.2380
448.80,64.2120
448.90,64.1846
449.00,64.1586
449.10,64.1342
449.20,64.1098
449.30,64.0854
449.40,64.0640
449.50,64.0442
449.60,64.0259
449.70,64.0091
449.80,63.9938
449.90,63.9709
450.00,63.9496
450.10,63.9297
450.20,63.9084
450.30,63.8870
450.40,63.8687
450.50,63.8535
450.60,63.8336
450.70,63.8184
450.80,63.8046
450.90,63.7894
451.00,63.7772
451.10,63.7604
451.20,63.7451
451.30,63.7222
451.40,63.7054
451.50,63.6887
451.60,63.6734
451.70,63.6581
451.80,63.6475
451.90,63.6368
452.00,63.6246
452.10,63.6124
452.20,63.5986
452.30,63.5864
452.40,63.5727
452.50,63.5635
452.60,63.5498
452.70,63.5391
452.80,63.5284
452.90,63.5223
453.00,63.5132
453.10,63.5056
453.20,63.4964
453.30,63.4857
453.40,63.4735
453.50,63.4613
453.60,63.4506
453.70,63.4445
453.80,63.4338
453.90,63.4308
454.00,63.4232
454.10,63.4186
454.20,63.4079
454.30,63.4018
454.40,63.3957
454.50,63.3911
454.60,63.3820
454.70,63.3743
454.80,63.3728
454.90,63.3682
455.00,63.3636
455.10,63.3606
455.20,63.3575
455.30,63.3575
455.40,63.3545
455.50,63.3575
455.60,63.3591
455.70,63.3606
455.80,63.3591
455.90,63.3591
456.00,63.3575
456.10,63.3545
456.20,63.3530
456.30,63.3530
456.40,63.3545
456.50,63.3530
456.60,63.3530
456.70,63.3545
456.80,63.3575
456.90,63.3606
457.00,63.3682
457.10,63.3743
457.20,63.3820
457.30,63.3850
457.40,63.3881
457.50,63.3896
457.60,63.3957
457.70,63.3972
457.80,63.4018
457.90,63.4064
458.00,63.4140
458.10,63.4186
458.20,63.4201
458.30,63.4262
458.40,63.4323
458.50,63.4384
458.60,63.4491
458.70,63.4552
458.80,63.4659
458.90,63.4705
459.00,63.4781
459.10,63.4827
459.20,63.4918
459.30,63.5040
459.40,63.5101
459.50,63.5223
459.60,63.5345
459.70,63.5391
459.80,63.5452
459.90,63.5544
460.00,63.5651
460.10,63.5742
460.20,63.5910
460.30,63.6063
460.40,63.6200
460.50,63.6368
460.60,63.6520
460.70,63.6673
460.80,63.6826
460.90,63.6978
461.00,63.7115
461.10,63.7283
461.20,63.7436
461.30,63.7589
461.40,63.7711
461.50,63.7863
461.60,63.8031
461.70,63.8184
461.80,63.8306
461.90,63.8458
462.00,63.8641
462.10,63.8779
462.20,63.8947
462.30,63.9114
462.40,63.9297
462.50,63.9481
462.60,63.9679
462.70,63.9847
462.80,64.0015
462.90,64.0182
463.00,64.0350
463.10,64.0488
463.20,64.0656
463.30,64.0823
463.40,64.0991
463.50,64.1144
463.60,64.1327
463.70,64.1479
463.80,64.1647
463.90,64.1815
464.00,64.2029
464.10,64.2212
464.20,64.2410
464.30,64.2654
464.40,64.2914
464.50,64.3173
464.60,64.3448
464.70,64.3768
464.80,64.4028
464.90,64.4302
465.00,64.4547
465.10,64.4745
465.20,64.4958
465.30,64.5157
465.40,64.5340
465.50,64.5523
465.60,64.5737
465.70,64.5935
465.80,64.6118
465.90,64.6347
466.00,64.6622
466.10,64.6851
466.20,64.7095
466.30,64.7369
466.40,64.7659
466.50,64.7888
466.60,64.8117
466.70,64.8376
466.80,64.8590
466.90,64.8819
467.00,64.9033
467.10,64.9216
467.20,64.9460
467.30,64.9704
467.40,64.9918
467.50,65.0146
467.60,65.0406
467.70,65.0620
467.80,65.0833
467.90,65.1077
468.00,65.1321
468.10,65.1535
468.20,65.1810
468.30,65.2054
468.40,65.2283
468.50,65.2542
468.60,65.2832
468.70,65.3152
468.80,65.3442
468.90,65.3748
469.00,65.4083
469.10,65.4373
469.20,65.4633
469.30,65.4861
469.40,65.5136
469.50,65.5396
469.60,65.5640
469.70,65.5869
469.80,65.6128
469.90,65.6372
470.00,65.6616
470.10,65.6921
470.20,65.7272
470.30,65.7639
470.40,65.7974
470.50,65.8264
470.60,65.8569
470.70,65.8844
470.80,65.9149
470.90,65.9439
471.00,65.9760
471.10,66.0095
471.20,66.0400
471.30,66.0660
471.40,66.0950
471.50,66.1209
471.60,66.1499
471.70,66.1774
471.80,66.2094
471.90,66.2415
472.00,66.2735
472.10,66.3010
472.20,66.3330
472.30,66.3666
472.40,66.4032
472.50,66.4383
472.60,66.4749
472.70,66.5100
472.80,66.5405
472.90,66.5710
473.00,66.5970
473.10,66.6245
473.20,66.6565
473.30,66.6885
473.40,66.7221
473.50,66.7572
473.60,66.7877
473.70,66.8152
473.80,66.8411
473.90,66.8686
474.00,66.8976
474.10,66.9250
474.20,66.9571
474.30,66.9922
474.40,67.0288
474.50,67.0639
474.60,67.1021
474.70,67.1387
474.80,67.1738
474.90,67.2104
475.00,67.2485
475.10,67.2775
475.20,67.3080
475.30,67.3447
475.40,67.3813
475.50,67.4149
475.60,67.4530
475.70,67.4927
475.80,67.5354
475.90,67.5735
476.00,67.6102
476.10,67.6483
476.20,67.6834
476.30,67.7185
476.40,67.7521
476.50,67.7933
476.60,67.8299
476.70,67.8680
476.80,67.9016
476.90,67.9352
477.00,67.9657
477.10,67.9977
477.20,68.0267
477.30,68.0618
477.40,68.0984
477.50,68.1351
477.60,68.1686
477.70,68.2068
477.80,68.2465
477.90,68.2846
478.00,68.3228
478.10,68.3670
478.20,68.4097
478.30,68.4494
478.40,68.4906
478.50,68.5287
478.60,68.5699
478.70,68.6066
478.80,68.6401
478.90,68.6768
479.00,68.7195
479.10,68.7592
479.20,68.7943
479.30,68.8339
479.40,68.8766
479.50,68.9117
479.60,68.9499
479.70,68.9850
479.80,69.0186
479.90,69.0521
480.00,69.0903
480.10,69.1299
480.20,69.1711
480.30,69.2139
480.40,69.2581
480.50,69.2993
480.60,69.3405
480.70,69.3771
480.80,69.4153
480.90,69.4550
481.00,69.4962
481.10,69.5389
481.20,69.5786
481.30,69.6213
481.40,69.6655
481.50,69.7098
481.60,69.7510
481.70,69.7937
481.80,69.8349
481.90,69.8761
482.00,69.9173
482.10,69.9570
482.20,69.9982
482.30,70.0378
482.40,70.0806
482.50,70.1233
482.60,70.1660
482.70,70.2087
482.80,70.2545
482.90,70.2972
483.00,70.3400
483.10,70.3827
483.20,70.4239
483.30,70.4636
483.40,70.5048
483.50,70.5460
483.60,70.5887
483.70,70.6284
483.80,70.6680
483.90,70.7092
484.00,70.7520
484.10,70.7977
484.20,70.8389
484.30,70.8817
484.40,70.9274
484.50,70.9702
484.60,71.0129
484.70,71.0556
484.80,71.1029
484.90,71.1472
485.00,71.1914
485.10,71.2357
485.20,71.2799
485.30,71.3211
485.40,71.3654
485.50,71.4081
485.60,71.4523
485.70,71.4920
485.80,71.5378
485.90,71.5805
486.00,71.6248
486.10,71.6675
486.20,71.7133
486.30,71.7621
486.40,71.8063
486.50,71.8521
486.60,71.9009
486.70,71.9452
486.80,71.9894
486.90,72.0306
487.00,72.0779
487.10,72.1191
487.20,72.1634
487.30,72.2076
487.40,72.2504
487.50,72.2961
487.60,72.3389
487.70,72.3846
487.80,72.4258
487.90,72.4747
488.00,72.5220
488.10,72.5693
488.20,72.6181
488.30,72.6669
488.40,72.7112
488.50,72.7554
488.60,72.8058
488.70,72.8485
488.80,72.8928
488.90,72.9385
489.00,72.9874
489.10,73.0331
489.20,73.0789
489.30,73.1293
489.40,73.1781
489.50,73.2269
489.60,73.2727
489.70,73.3170
489.80,73.3612
489.90,73.4039
490.00,73.4512
490.10,73.4985
490.20,73.5489
490.30,73.5962
490.40,73.6465
490.50,73.7000
490.60,73.7457
490.70,73.7930
490.80,73.8419
490.90,73.8907
491.00,73.9334
491.10,73.9777
491.20,74.0234
491.30,74.0707
491.40,74.1196
491.50,74.1669
491.60,74.2172
491.70,74.2676
491.80,74.3179
491.90,74.3652
492.00,74.4110
492.10,74.4629
492.20,74.5163
492.30,74.5621
492.40,74.6124
492.50,74.6613
492.60,74.7086
492.70,74.7498
492.80,74.7971
492.90,74.8444
493.00,74.8901
493.10,74.9359
493.20,74.9863
493.30,75.0351
493.40,75.0839
493.50,75.1328
493.60,75.1785
493.70,75.2258
493.80,75.2792
493.90,75.3311
494.00,75.3815
494.10,75.4333
494.20,75.4852
494.30,75.5356
494.40,75.5814
494.50,75.6317
494.60,75.6821
494.70,75.7294
494.80,75.7813
494.90,75.8301
495.00,75.8820
495.10,75.9338
495.20,75.9872
495.30,76.0376
495.40,76.0895
495.50,76.1398
495.60,76.1902
495.70,76.2405
495.80,76.2924
495.90,76.3474
496.00,76.4008
496.10,76.4511
496.20,76.5015
496.30,76.5518
496.40,76.6022
496.50,76.6464
496.60,76.6968
496.70,76.7548
496.80,76.8082
496.90,76.8600
497.00,76.9119
497.10,76.9684
497.20,77.0172
497.30,77.0645
497.40,77.1133
497.50,77.1637
497.60,77.2171
497.70,77.2659
497.80,77.3178
497.90,77.3712
498.00,77.4261
498.10,77.4750
498.20,77.5223
498.30,77.5726
498.40,77.6199
498.50,77.6657
498.60,77.7115
498.70,77.7603
498.80,77.8122
498.90,77.8641
499.00,77.9175
499.10,77.9694
499.20,78.0228
499.30,78.0777
499.40,78.1265
499.50,78.1784
499.60,78.2272
499.70,78.2776
499.80,78.3264
499.90,78.3783
500.00,78.4271
500.10,78.4805
500.20,78.5309
500.30,78.5797
500.40,78.6224
500.50,78.6682
500.60,78.7125
500.70,78.7567
500.80,78.8010
500.90,78.8437
501.00,78.8864
501.10,78.9383
501.20,78.9886
501.30,79.0359
501.40,79.0802
501.50,79.1321
501.60,79.1855
501.70,79.2297
501.80,79.2786
501.90,79.3396
502.00,79.3976
502.10,79.4540
502.20,79.5074
502.30,79.5639
502.40,79.6097
502.50,79.6585
502.60,79.7089
502.70,79.7562
502.80,79.8050
502.90,79.8553
503.00,79.9026
503.10,79.9500
503.20,79.9988
503.30,80.0507
503.40,80.1025
503.50,80.1514
503.60,80.2032
503.70,80.2551
503.80,80.3040
503.90,80.3543
504.00,80.4062
504.10,80.4565
504.20,80.5023
504.30,80.5542
504.40,80.6030
504.50,80.6564
504.60,80.7068
504.70,80.7526
504.80,80.8014
504.90,80.8456
505.00,80.8914
505.10,80.9387
505.20,80.9967
505.30,81.0516
505.40,81.1035
505.50,81.1554
505.60,81.2103
505.70,81.2561
505.80,81.3019
505.90,81.3492
506.00,81.3965
506.10,81.4453
506.20,81.4896
506.30,81.5369
506.40,81.5857
506.50,81.6360
506.60,81.6803
506.70,81.7261
506.80,81.7703
506.90,81.8130
507.00,81.8604
507.10,81.9077
507.20,81.9534
507.30,82.0038
507.40,82.0618
507.50,82.1182
507.60,82.1732
507.70,82.2296
507.80,82.2861
507.90,82.3380
508.00,82.3868
508.10,82.4326
508.20,82.4783
508.30,82.5241
508.40,82.5714
508.50,82.6172
508.60,82.6660
508.70,82.7118
508.80,82.7576
508.90,82.8049
509.00,82.8552
509.10,82.9041
509.20,82.9575
509.30,83.0109
509.40,83.0643
509.50,83.1161
509.60,83.1680
509.70,83.2169
509.80,83.2611
509.90,83.3069
510.00,83.3557
510.10,83.3984
510.20,83.4427
510.30,83.4885
510.40,83.5358
510.50,83.5785
510.60,83.6243
510.70,83.6731
510.80,83.7173
510.90,83.7570
511.00,83.7967
511.10,83.8409
511.20,83.8821
511.30,83.9310
511.40,83.9767
511.50,84.0256
511.60,84.0759
511.70,84.1278
511.80,84.1797
511.90,84.2300
512.00,84.2804
512.10,84.3292
512.20,84.3765
512.30,84.4208
512.40,84.4604
512.50,84.5093
512.60,84.5520
512.70,84.5932
512.80,84.6436
512.90,84.6924
513.00,84.7427
513.10,84.7931
513.20,84.8465
513.30,84.8938
513.40,84.9380
513.50,84.9838
513.60,85.0327
513.70,85.0784
513.80,85.1227
513.90,85.1669
514.00,85.2112
514.10,85.2539
514.20,85.2936
514.30,85.3439
514.40,85.3973
514.50,85.4492
514.60,85.4996
514.70,85.5515
514.80,85.5972
514.90,85.6369
515.00,85.6812
515.10,85.7239
515.20,85.7635
515.30,85.8017
515.40,85.8398
515.50,85.8810
515.60,85.9161
515.70,85.9543
515.80,85.9955
515.90,86.0428
516.00,86.0870
516.10,86.1359
516.20,86.1877
516.30,86.2350
516.40,86.2854
516.50,86.3342
516.60,86.3770
516.70,86.4197
516.80,86.4685
516.90,86.5158
517.00,86.5585
517.10,86.6043
517.20,86.6531
517.30,86.6943
517.40,86.7355
517.50,86.7813
517.60,86.8301
517.70,86.8759
517.80,86.9202
517.90,86.9705
518.00,87.0148
518.10,87.0499
518.20,87.0880
518.30,87.1307
518.40,87.1643
518.50,87.1964
518.60,87.2360
518.70,87.2757
518.80,87.3108
518.90,87.3474
519.00,87.3886
519.10,87.4359
519.20,87.4802
519.30,87.5244
519.40,87.5702
519.50,87.6190
519.60,87.6602
519.70,87.7029
519.80,87.7457
519.90,87.7930
520.00,87.8342
520.10,87.8754
520.20,87.9135
520.30,87.9562
520.40,87.9959
520.50,88.0386
520.60,88.0829
520.70,88.1317
520.80,88.1744
520.90,88.2156
521.00,88.2584
521.10,88.2935
521.20,88.3301
521.30,88.3698
521.40,88.4125
521.50,88.4537
521.60,88.4918
521.70,88.5300
521.80,88.5666
521.90,88.6002
522.00,88.6337
522.10,88.6627
522.20,88.6963
522.30,88.7360
522.40,88.7787
522.50,88.8245
522.60,88.8672
522.70,88.9130
522.80,88.9557
522.90,88.9908
523.00,89.0182
523.10,89.0518
523.20,89.0915
523.30,89.1327
523.40,89.1693
523.50,89.2105
523.60,89.2532
523.70,89.2914
523.80,89.3265
523.90,89.3600
524.00,89.4012
524.10,89.4424
524.20,89.4760
524.30,89.5111
524.40,89.5538
524.50,89.5920
524.60,89.6317
524.70,89.6713
524.80,89.7156
524.90,89.7537
525.00,89.7888
525.10,89.8224
525.20,89.8544
525.30,89.8880
525.40,89.9200
525.50,89.9551
525.60,89.9963
525.70,90.0345
525.80,90.0726
525.90,90.1093
526.00,90.1489
526.10,90.1840
526.20,90.2176
526.30,90.2496
526.40,90.2832
526.50,90.3183
526.60,90.3564
526.70,90.3961
526.80,90.4327
526.90,90.4694
527.00,90.5045
527.10,90.5396
527.20,90.5670
527.30,90.6006
527.40,90.6403
527.50,90.6815
527.60,90.7227
527.70,90.7623
527.80,90.8035
527.90,90.8432
528.00,90.8798
528.10,90.9088
528.20,90.9378
528.30,90.9653
528.40,90.9958
528.50,91.0294
528.60,91.0660
528.70,91.1026
528.80,91.1469
528.90,91.1819
529.00,91.2155
529.10,91.2460
529.20,91.2766
529.30,91.3055
529.40,91.3330
529.50,91.3681
529.60,91.3986
529.70,91.4337
529.80,91.4703
529.90,91.5085
530.00,91.5451
530.10,91.5787
530.20,91.6138
530.30,91.6428
530.40,91.6763
530.50,91.7084
530.60,91.7435
530.70,91.7755
530.80,91.8076
530.90,91.8411
531.00,91.8701
531.10,91.9006
531.20,91.9296
531.30,91.9617
531.40,91.9968
531.50,92.0273
531.60,92.0578
531.70,92.0929
531.80,92.1310
531.90,92.1661
532.00,92.2012
532.10,92.2333
532.20,92.2699
532.30,92.3050
532.40,92.3370
532.50,92.3706
532.60,92.4011
532.70,92.4255
532.80,92.4484
532.90,92.4713
533.00,92.4988
533.10,92.5278
533.20,92.5659
533.30,92.6041
533.40,92.6422
533.50,92.6773
533.60,92.7078
533.70,92.7353
533.80,92.7673
533.90,92.7979
534.00,92.8253
534.10,92.8574
534.20,92.8879
534.30,92.9184
534.40,92.9459
534.50,92.9779
534.60,93.0115
534.70,93.0405
534.80,93.0664
534.90,93.0969
535.00,93.1290
535.10,93.1641
535.20,93.2007
535.30,93.2449
535.40,93.2892
535.50,93.3243
535.60,93.3578
535.70,93.3868
535.80,93.4128
535.90,93.4433
536.00,93.4769
536.10,93.5059
536.20,93.5333
536.30,93.5699
536.40,93.5913
536.50,93.6096
536.60,93.6279
536.70,93.6493
536.80,93.6691
536.90,93.6874
537.00,93.7057
537.10,93.7271
537.20,93.7515
537.30,93.7790
537.40,93.8049
537.50,93.8339
537.60,93.8644
537.70,93.8950
537.80,93.9240
537.90,93.9484
538.00,93.9682
538.10,93.9911
538.20,94.0170
538.30,94.0430
538.40,94.0689
538.50,94.1025
538.60,94.1360
538.70,94.1666
538.80,94.1940
538.90,94.2200
539.00,94.2520
539.10,94.2841
539.20,94.3115
539.30,94.3405
539.40,94.3771
539.50,94.4061
539.60,94.4290
539.70,94.4550
539.80,94.4763
539.90,94.4992
540.00,94.5221
540.10,94.5435
540.20,94.5694
540.30,94.5969
540.40,94.6259
540.50,94.6518
540.60,94.6777
540.70,94.7021
540.80,94.7281
540.90,94.7525
541.00,94.7754
541.10,94.7983
541.20,94.8242
541.30,94.8502
541.40,94.8776
541.50,94.9066
541.60,94.9310
541.70,94.9585
541.80,94.9814
541.90,95.0027
542.00,95.0226
542.10,95.0455
542.20,95.0699
542.30,95.0958
542.40,95.1218
542.50,95.1523
542.60,95.1828
542.70,95.2118
542.80,95.2377
542.90,95.2667
543.00,95.2972
543.10,95.3201
543.20,95.3445
543.30,95.3659
543.40,95.3903
543.50,95.4117
543.60,95.4315
543.70,95.4529
543.80,95.4712
543.90,95.4895
544.00,95.5063
544.10,95.5261
544.20,95.5460
544.30,95.5688
544.40,95.5948
544.50,95.6192
544.60,95.6436
544.70,95.6696
544.80,95.6955
544.90,95.7199
545.00,95.7443
545.10,95.7672
545.20,95.7855
545.30,95.8008
545.40,95.8176
545.50,95.8344
545.60,95.8527
545.70,95.8679
545.80,95.8878
545.90,95.9076
546.00,95.9335
546.10,95.9549
546.20,95.9808
546.30,96.0037
546.40,96.0297
546.50,96.0510
546.60,96.0724
546.70,96.0922
546.80,96.1090
546.90,96.1227
547.00,96.1411
547.10,96.1624
547.20,96.1838
547.30,96.2082
547.40,96.2326
547.50,96.2540
547.60,96.2753
547.70,96.2997
547.80,96.3196
547.90,96.3425
548.00,96.3654
548.10,96.3913
548.20,96.4081
548.30,96.4264
548.40,96.4417
548.50,96.4554
548.60,96.4630
548.70,96.4783
548.80,96.4966
548.90,96.5164
549.00,96.5393
549.10,96.5637
549.20,96.5820
549.30,96.6019
549.40,96.6202
549.50,96.6248
549.60,96.6385
549.70,96.6537
549.80,96.6660
549.90,96.6766
550.00,96.6980
550.10,96.7178
550.20,96.7300
550.30,96.7514
550.40,96.7697
550.50,96.7834
550.60,96.8002
550.70,96.8155
550.80,96.8307
550.90,96.8460
551.00,96.8689
551.10,96.8887
551.20,96.9055
551.30,96.9254
551.40,96.9437
551.50,96.9574
551.60,96.9742
551.70,96.9940
551.80,97.0154
551.90,97.0383
552.00,97.0642
552.10,97.0901
552.20,97.1115
552.30,97.1283
552.40,97.1466
552.50,97.1634
552.60,97.1802
552.70,97.1970
552.80,97.2198
552.90,97.2382
553.00,97.2565
553.10,97.2687
553.20,97.2778
553.30,97.2855
553.40,97.2946
553.50,97.3038
553.60,97.3129
553.70,97.3206
553.80,97.3328
553.90,97.3465
554.00,97.3572
554.10,97.3679
554.20,97.3831
554.30,97.4014
554.40,97.4136
554.50,97.4274
554.60,97.4396
554.70,97.4564
554.80,97.4731
554.90,97.4915
555.00,97.5143
555.10,97.5342
555.20,97.5571
555.30,97.5800
555.40,97.5952
555.50,97.6059
555.60,97.6196
555.70,97.6349
555.80,97.6440
555.90,97.6563
556.00,97.6700
556.10,97.6852
556.20,97.6959
556.30,97.7112
556.40,97.7295
556.50,97.7478
556.60,97.7631
556.70,97.7783
556.80,97.7875
556.90,97.7997
557.00,97.8119
557.10,97.8226
557.20,97.8363
557.30,97.8531
557.40,97.8683
557.50,97.8729
557.60,97.8790
557.70,97.8912
557.80,97.9034
557.90,97.9126
558.00,97.9263
558.10,97.9431
558.20,97.9553
558.30,97.9675
558.40,97.9797
558.50,97.9950
558.60,98.0072
558.70,98.0179
558.80,98.0286
558.90,98.0362
559.00,98.0484
559.10,98.0606
559.20,98.0743
559.30,98.0881
559.40,98.1079
559.50,98.1247
559.60,98.1354
559.70,98.1522
559.80,98.1674
559.90,98.1796
560.00,98.1918
560.10,98.2071
560.20,98.2178
560.30,98.2269
560.40,98.2361
560.50,98.2452
560.60,98.2544
560.70,98.2651
560.80,98.2758
560.90,98.2834
561.00,98.2895
561.10,98.3002
561.20,98.3124
561.30,98.3246
561.40,98.3398
561.50,98.3551
561.60,98.3688
561.70,98.3795
561.80,98.3841
561.90,98.3887
562.00,98.3948
562.10,98.4039
562.20,98.4207
562.30,98.4329
562.40,98.4512
562.50,98.4650
562.60,98.4787
562.70,98.4894
562.80,98.4955
562.90,98.5046
563.00,98.5092
563.10,98.5168
563.20,98.5245
563.30,98.5336
563.40,98.5474
563.50,98.5580
563.60,98.5718
563.70,98.5779
563.80,98.5886
563.90,98.5947
564.00,98.5992
564.10,98.6023
564.20,98.6099
564.30,98.6237
564.40,98.6343
564.50,98.6420
564.60,98.6496
564.70,98.6557
564.80,98.6618
564.90,98.6633
565.00,98.6725
565.10,98.6801
565.20,98.6847
565.30,98.6938
565.40,98.7015
565.50,98.7198
565.60,98.7335
565.70,98.7488
565.80,98.7640
565.90,98.7778
566.00,98.7854
566.10,98.7869
566.20,98.7915
566.30,98.7991
566.40,98.8052
566.50,98.8098
566.60,98.8174
566.70,98.8281
566.80,98.8403
566.90,98.8495
567.00,98.8617
567.10,98.8724
567.20,98.8815
567.30,98.8907
567.40,98.9014
567.50,98.9120
567.60,98.9243
567.70,98.9319
567.80,98.9426
567.90,98.9502
568.00,98.9578
568.10,98.9685
568.20,98.9761
568.30,98.9853
568.40,98.9914
568.50,98.9990
568.60,99.0036
568.70,99.0112
568.80,99.0173
568.90,99.0234
569.00,99.0311
569.10,99.0402
569.20,99.0463
569.30,99.0479
569.40,99.0540
569.50,99.0601
569.60,99.0646
569.70,99.0753
569.80,99.0845
569.90,99.0997
570.00,99.1013
570.10,99.1058
570.20,99.1119
570.30,99.1119
570.40,99.1074
570.50,99.1104
570.60,99.1180
570.70,99.1226
570.80,99.1287
570.90,99.1394
571.00,99.1501
571.10,99.1577
571.20,99.1638
571.30,99.1730
571.40,99.1791
571.50,99.1882
571.60,99.1974
571.70,99.2020
571.80,99.2081
571.90,99.2111
572.00,99.2172
572.10,99.2203
572.20,99.2249
572.30,99.2340
572.40,99.2416
572.50,99.2493
572.60,99.2538
572.70,99.2584
572.80,99.2645
572.90,99.2630
573.00,99.2645
573.10,99.2676
573.20,99.2706
573.30,99.2737
573.40,99.2813
573.50,99.2813
573.60,99.2828
573.70,99.2798
573.80,99.2859
573.90,99.2889
574.00,99.2950
574.10,99.3073
574.20,99.3210
574.30,99.3347
574.40,99.3423
574.50,99.3561
574.60,99.3698
574.70,99.3790
574.80,99.3866
574.90,99.3927
575.00,99.3958
575.10,99.3988
575.20,99.4034
575.30,99.4064
575.40,99.4110
575.50,99.4186
575.60,99.4247
575.70,99.4278
575.80,99.4354
575.90,99.4431
576.00,99.4507
576.10,99.4507
576.20,99.4492
576.30,99.4476
576.40,99.4461
576.50,99.4385
576.60,99.4385
576.70,99.4400
576.80,99.4415
576.90,99.4446
577.00,99.4507
577.10,99.4553
577.20,99.4614
577.30,99.4644
577.40,99.4659
577.50,99.4659
577.60,99.4659
577.70,99.4675
577.80,99.4751
577.90,99.4827
578.00,99.4934
578.10,99.5026
578.20,99.5132
578.30,99.5163
578.40,99.5209
578.50,99.5255
578.60,99.5316
578.70,99.5346
578.80,99.5407
578.90,99.5453
579.00,99.5468
579.10,99.5529
579.20,99.5560
579.30,99.5621
579.40,99.5651
579.50,99.5682
579.60,99.5743
579.70,99.5758
579.80,99.5804
579.90,99.5819
580.00,99.5865
580.10,99.5911
580.20,99.5987
580.30,99.6048
580.40,99.6155
580.50,99.6246
580.60,99.6277
580.70,99.6277
580.80,99.6262
580.90,99.6201
581.00,99.6170
581.10,99.6140
581.20,99.6185
581.30,99.6170
581.40,99.6170
581.50,99.6201
581.60,99.6216
581.70,99.6231
581.80,99.6246
581.90,99.6323
582.00,99.6368
582.10,99.6368
582.20,99.6368
582.30,99.6353
582.40,99.6307
582.50,99.6307
582.60,99.6307
582.70,99.6353
582.80,99.6429
582.90,99.6521
583.00,99.6582
583.10,99.6628
583.20,99.6704
583.30,99.6796
583.40,99.6841
583.50,99.6902
583.60,99.6994
583.70,99.7070
583.80,99.7101
583.90,99.7086
584.00,99.7086
584.10,99.7086
584.20,99.7070
584.30,99.7009
584.40,99.6933
584.50,99.6933
584.60,99.6902
584.70,99.6918
584.80,99.6918
584.90,99.6918
585.00,99.6887
585.10,99.6857
585.20,99.6826
585.30,99.6765
585.40,99.6780
585.50,99.6826
585.60,99.6872
585.70,99.6826
585.80,99.6887
585.90,99.6948
586.00,99.6948
586.10,99.6948
586.20,99.6994
586.30,99.7009
586.40,99.7025
586.50,99.7040
586.60,99.7101
586.70,99.7101
586.80,99.7147
586.90,99.7131
587.00,99.7131
587.10,99.7177
587.20,99.7269
587.30,99.7330
587.40,99.7391
587.50,99.7437
587.60,99.7482
587.70,99.7498
587.80,99.7513
587.90,99.7498
588.00,99.7513
588.10,99.7559
588.20,99.7604
588.30,99.7620
588.40,99.7681
588.50,99.7711
588.60,99.7681
588.70,99.7696
588.80,99.7665
588.90,99.7650
589.00,99.7650
589.10,99.7711
589.20,99.7711
589.30,99.7742
589.40,99.7772
589.50,99.7787
589.60,99.7787
589.70,99.7772
589.80,99.7742
589.90,99.7681
590.00,99.7665
590.10,99.7681
590.20,99.7726
590.30,99.7772
590.40,99.7772
590.50,99.7803
590.60,99.7772
590.70,99.7757
590.80,99.7726
590.90,99.7757
591.00,99.7757
591.10,99.7726
591.20,99.7711
591.30,99.7681
591.40,99.7711
591.50,99.7711
591.60,99.7742
591.70,99.7803
591.80,99.7849
591.90,99.7894
592.00,99.7894
592.10,99.7910
592.20,99.7894
592.30,99.7864
592.40,99.7864
592.50,99.7849
592.60,99.7879
592.70,99.7925
592.80,99.8016
592.90,99.8077
593.00,99.8123
593.10,99.8154
593.20,99.8184
593.30,99.8169
593.40,99.8184
593.50,99.8169
593.60,99.8154
593.70,99.8123
593.80,99.8093
593.90,99.8062
594.00,99.8062
594.10,99.8062
594.20,99.8093
594.30,99.8093
594.40,99.8108
594.50,99.8138
594.60,99.8108
594.70,99.8093
594.80,99.8047
594.90,99.8077
595.00,99.8123
595.10,99.8154
595.20,99.8230
595.30,99.8276
595.40,99.8367
595.50,99.8337
595.60,99.8352
595.70,99.8306
595.80,99.8291
595.90,99.8230
596.00,99.8215
596.10,99.8245
596.20,99.8322
596.30,99.8352
596.40,99.8367
596.50,99.8367
596.60,99.8383
596.70,99.8306
596.80,99.8322
596.90,99.8367
597.00,99.8398
597.10,99.8413
597.20,99.8474
597.30,99.8474
597.40,99.8459
597.50,99.8489
597.60,99.8505
597.70,99.8505
597.80,99.8459
597.90,99.8474
598.00,99.8489
598.10,99.8505
598.20,99.8535
598.30,99.8627
598.40,99.8688
598.50,99.8657
598.60,99.8596
598.70,99.8566
598.80,99.8489
598.90,99.8383
599.00,99.8306
599.10,99.8291
599.20,99.8291
599.30,99.8276
599.40,99.8291
599.50,99.8322
599.60,99.8367
599.70,99.8383
599.80,99.8352
599.90,99.8337
600.00,99.8352
600.10,99.8352
600.20,99.8337
600.30,99.8398
600.40,99.8444
600.50,99.8489
600.60,99.8520
600.70,99.8550
600.80,99.8550
600.90,99.8550
601.00,99.8489
601.10,99.8505
601.20,99.8505
601.30,99.8535
601.40,99.8581
601.50,99.8657
601.60,99.8718
601.70,99.8779
601.80,99.8810
601.90,99.8795
602.00,99.8779
602.10,99.8749
602.20,99.8795
602.30,99.8779
602.40,99.8825
602.50,99.8825
602.60,99.8840
602.70,99.8810
602.80,99.8825
602.90,99.8840
603.00,99.8856
603.10,99.8856
603.20,99.8856
603.30,99.8810
603.40,99.8810
603.50,99.8764
603.60,99.8764
603.70,99.8764
603.80,99.8795
603.90,99.8810
604.00,99.8840
604.10,99.8795
604.20,99.8825
604.30,99.8840
604.40,99.8840
604.50,99.8779
604.60,99.8810
604.70,99.8901
604.80,99.8901
604.90,99.8856
605.00,99.8840
605.10,99.8871
605.20,99.8810
605.30,99.8795
605.40,99.8810
605.50,99.8871
605.60,99.8886
605.70,99.8856
605.80,99.8886
605.90,99.8932
606.00,99.8947
606.10,99.8901
606.20,99.8932
606.30,99.8932
606.40,99.8871
606.50,99.8795
606.60,99.8810
606.70,99.8840
606.80,99.8825
606.90,99.8886
607.00,99.8962
607.10,99.9008
607.20,99.9008
607.30,99.9039
607.40,99.9023
607.50,99.9008
607.60,99.8962
607.70,99.8886
607.80,99.8810
607.90,99.8749
608.00,99.8703
608.10,99.8703
608.20,99.8718
608.30,99.8718
608.40,99.8764
608.50,99.8749
608.60,99.8764
608.70,99.8749
608.80,99.8795
608.90,99.8810
609.00,99.8810
609.10,99.8810
609.20,99.8795
609.30,99.8810
609.40,99.8810
609.50,99.8840
609.60,99.8840
609.70,99.8886
609.80,99.8886
609.90,99.8917
610.00,99.8917
610.10,99.8947
610.20,99.8962
610.30,99.8962
610.40,99.8932
610.50,99.8901
610.60,99.8840
610.70,99.8810
610.80,99.8749
610.90,99.8703
611.00,99.8688
611.10,99.8703
611.20,99.8703
611.30,99.8703
611.40,99.8718
611.50,99.8764
611.60,99.8779
611.70,99.8779
611.80,99.8810
611.90,99.8825
612.00,99.8810
612.10,99.8825
612.20,99.8871
612.30,99.8947
612.40,99.8993
612.50,99.8993
612.60,99.9023
612.70,99.8993
612.80,99.8917
612.90,99.8886
613.00,99.8901
613.10,99.8917
613.20,99.8932
613.30,99.8917
613.40,99.8917
613.50,99.8917
613.60,99.8886
613.70,99.8871
613.80,99.8871
613.90,99.8886
614.00,99.8856
614.10,99.8856
614.20,99.8840
614.30,99.8825
614.40,99.8779
614.50,99.8734
614.60,99.8688
614.70,99.8627
614.80,99.8581
614.90,99.8520
615.00,99.8520
615.10,99.8505
615.20,99.8489
615.30,99.8474
615.40,99.8520
615.50,99.8566
615.60,99.8611
615.70,99.8657
615.80,99.8703
615.90,99.8703
616.00,99.8688
616.10,99.8688
616.20,99.8657
616.30,99.8672
616.40,99.8688
616.50,99.8718
616.60,99.8734
616.70,99.8779
616.80,99.8779
616.90,99.8810
617.00,99.8840
617.10,99.8825
617.20,99.8810
617.30,99.8779
617.40,99.8749
617.50,99.8749
617.60,99.8718
617.70,99.8764
617.80,99.8795
617.90,99.8795
618.00,99.8795
618.10,99.8795
618.20,99.8795
618.30,99.8779
618.40,99.8749
618.50,99.8749
618.60,99.8749
618.70,99.8718
618.80,99.8703
618.90,99.8672
619.00,99.8627
619.10,99.8581
619.20,99.8550
619.30,99.8535
619.40,99.8566
619.50,99.8550
619.60,99.8535
619.70,99.8489
619.80,99.8474
619.90,99.8489
620.00,99.8489
620.10,99.8505
620.20,99.8581
620.30,99.8596
620.40,99.8596
620.50,99.8581
620.60,99.8581
620.70,99.8627
620.80,99.8657
620.90,99.8657
621.00,99.8642
621.10,99.8657
621.20,99.8627
621.30,99.8672
621.40,99.8688
621.50,99.8688
621.60,99.8688
621.70,99.8703
621.80,99.8657
621.90,99.8642
622.00,99.8642
622.10,99.8672
622.20,99.8657
622.30,99.8657
622.40,99.8627
622.50,99.8581
622.60,99.8550
622.70,99.8520
622.80,99.8489
622.90,99.8474
623.00,99.8474
623.10,99.8505
623.20,99.8535
623.30,99.8550
623.40,99.8566
623.50,99.8627
623.60,99.8627
623.70,99.8611
623.80,99.8596
623.90,99.8581
624.00,99.8596
624.10,99.8566
624.20,99.8581
624.30,99.8611
624.40,99.8627
624.50,99.8642
624.60,99.8627
624.70,99.8611
624.80,99.8520
624.90,99.8474
625.00,99.8428
625.10,99.8444
625.20,99.8444
625.30,99.8459
625.40,99.8474
625.50,99.8505
625.60,99.8474
625.70,99.8444
625.80,99.8428
625.90,99.8413
626.00,99.8428
626.10,99.8428
626.20,99.8459
626.30,99.8474
626.40,99.8459
626.50,99.8444
626.60,99.8459
626.70,99.8444
626.80,99.8444
626.90,99.8474
627.00,99.8474
627.10,99.8505
627.20,99.8505
627.30,99.8535
627.40,99.8520
627.50,99.8505
627.60,99.8489
627.70,99.8520
627.80,99.8520
627.90,99.8520
628.00,99.8505
628.10,99.8505
628.20,99.8535
628.30,99.8520
628.40,99.8505
628.50,99.8535
628.60,99.8581
628.70,99.8627
628.80,99.8581
628.90,99.8550
629.00,99.8566
629.10,99.8535
629.20,99.8505
629.30,99.8474
629.40,99.8505
629.50,99.8505
629.60,99.8444
629.70,99.8413
629.80,99.8428
629.90,99.8444
630.00,99.8459
630.10,99.8459
630.20,99.8444
630.30,99.8428
630.40,99.8352
630.50,99.8322
630.60,99.8306
630.70,99.8291
630.80,99.8306
630.90,99.8352
631.00,99.8459
631.10,99.8520
631.20,99.8596
631.30,99.8611
631.40,99.8596
631.50,99.8581
631.60,99.8505
631.70,99.8474
631.80,99.8428
631.90,99.8444
632.00,99.8459
632.10,99.8459
632.20,99.8459
632.30,99.8489
632.40,99.8505
632.50,99.8474
632.60,99.8413
632.70,99.8337
632.80,99.8291
632.90,99.8276
633.00,99.8276
633.10,99.8291
633.20,99.8322
633.30,99.8383
633.40,99.8398
633.50,99.8459
633.60,99.8550
633.70,99.8596
633.80,99.8642
633.90,99.8718
634.00,99.8749
634.10,99.8718
634.20,99.8688
634.30,99.8611
634.40,99.8566
634.50,99.8489
634.60,99.8474
634.70,99.8444
634.80,99.8474
634.90,99.8489
635.00,99.8505
635.10,99.8505
635.20,99.8459
635.30,99.8428
635.40,99.8444
635.50,99.8444
635.60,99.8413
635.70,99.8413
635.80,99.8428
635.90,99.8428
636.00,99.8444
636.10,99.8459
636.20,99.8520
636.30,99.8550
636.40,99.8581
636.50,99.8596
636.60,99.8627
636.70,99.8627
636.80,99.8627
636.90,99.8627
637.00,99.8581
637.10,99.8596
637.20,99.8596
637.30,99.8550
637.40,99.8520
637.50,99.8505
637.60,99.8489
637.70,99.8505
637.80,99.8489
637.90,99.8535
638.00,99.8566
638.10,99.8550
638.20,99.8550
638.30,99.8535
638.40,99.8474
638.50,99.8428
638.60,99.8398
638.70,99.8383
638.80,99.8383
638.90,99.8367
639.00,99.8413
639.10,99.8474
639.20,99.8505
639.30,99.8535
639.40,99.8596
639.50,99.8642
639.60,99.8642
639.70,99.8657
639.80,99.8688
639.90,99.8718
640.00,99.8749
640.10,99.8764
640.20,99.8795
640.30,99.8825
640.40,99.8810
640.50,99.8779
640.60,99.8749
640.70,99.8718
640.80,99.8718
640.90,99.8688
641.00,99.8688
641.10,99.8718
641.20,99.8764
641.30,99.8764
641.40,99.8779
641.50,99.8795
641.60,99.8810
641.70,99.8795
641.80,99.8764
641.90,99.8718
642.00,99.8688
642.10,99.8688
642.20,99.8703
642.30,99.8749
642.40,99.8856
642.50,99.8932
642.60,99.8962
642.70,99.8978
642.80,99.8978
642.90,99.8947
643.00,99.8901
643.10,99.8917
643.20,99.8886
643.30,99.8871
643.40,99.8810
643.50,99.8779
643.60,99.8749
643.70,99.8688
643.80,99.8703
643.90,99.8718
644.00,99.8764
644.10,99.8718
644.20,99.8718
644.30,99.8672
644.40,99.8596
644.50,99.8505
644.60,99.8459
644.70,99.8444
644.80,99.8474
644.90,99.8520
645.00,99.8581
645.10,99.8596
645.20,99.8611
645.30,99.8627
645.40,99.8642
645.50,99.8672
645.60,99.8734
645.70,99.8795
645.80,99.8840
645.90,99.8825
646.00,99.8871
646.10,99.8825
646.20,99.8764
646.30,99.8749
646.40,99.8749
646.50,99.8749
646.60,99.8749
646.70,99.8734
646.80,99.8718
646.90,99.8688
647.00,99.8627
647.10,99.8550
647.20,99.8520
647.30,99.8535
647.40,99.8535
647.50,99.8566
647.60,99.8611
647.70,99.8596
647.80,99.8581
647.90,99.8596
648.00,99.8611
648.10,99.8611
648.20,99.8596
648.30,99.8596
648.40,99.8581
648.50,99.8596
648.60,99.8566
648.70,99.8611
648.80,99.8688
648.90,99.8749
649.00,99.8764
649.10,99.8810
649.20,99.8840
649.30,99.8825
649.40,99.8840
649.50,99.8840
649.60,99.8871
649.70,99.8886
649.80,99.8962
649.90,99.9039
650.00,99.9084
