"FBK(LG釭輿) - RawData"
"Wavelength nm.","T%"
420.00,100.4410
420.10,100.4471
420.20,100.4517
420.30,100.4593
420.40,100.4608
420.50,100.4547
420.60,100.4471
420.70,100.4410
420.80,100.4333
420.90,100.4288
421.00,100.4318
421.10,100.4379
421.20,100.4440
421.30,100.4440
421.40,100.4379
421.50,100.4364
421.60,100.4379
421.70,100.4303
421.80,100.4257
421.90,100.4211
422.00,100.4227
422.10,100.4196
422.20,100.4211
422.30,100.4211
422.40,100.4196
422.50,100.4242
422.60,100.4242
422.70,100.4242
422.80,100.4318
422.90,100.4349
423.00,100.4349
423.10,100.4410
423.20,100.4318
423.30,100.4257
423.40,100.4181
423.50,100.4105
423.60,100.4044
423.70,100.4013
423.80,100.4089
423.90,100.4059
424.00,100.4028
424.10,100.4028
424.20,100.4059
424.30,100.4044
424.40,100.4013
424.50,100.4074
424.60,100.4150
424.70,100.4211
424.80,100.4150
424.90,100.4242
425.00,100.4227
425.10,100.4135
425.20,100.4166
425.30,100.4211
425.40,100.4150
425.50,100.4196
425.60,100.4211
425.70,100.4227
425.80,100.4181
425.90,100.4150
426.00,100.4135
426.10,100.4166
426.20,100.4166
426.30,100.4074
426.40,100.4013
426.50,100.4044
426.60,100.4044
426.70,100.4013
426.80,100.4059
426.90,100.4135
427.00,100.4089
427.10,100.4059
427.20,100.4028
427.30,100.4028
427.40,100.3967
427.50,100.3952
427.60,100.3983
427.70,100.4028
427.80,100.4013
427.90,100.4044
428.00,100.4135
428.10,100.4089
428.20,100.4059
428.30,100.4105
428.40,100.4074
428.50,100.4044
428.60,100.4059
428.70,100.4089
428.80,100.4135
428.90,100.4196
429.00,100.4211
429.10,100.4196
429.20,100.4166
429.30,100.4044
429.40,100.3937
429.50,100.3876
429.60,100.3845
429.70,100.3815
429.80,100.3799
429.90,100.3830
430.00,100.3769
430.10,100.3769
430.20,100.3799
430.30,100.3891
430.40,100.3983
430.50,100.4074
430.60,100.4120
430.70,100.4150
430.80,100.4227
430.90,100.4211
431.00,100.4181
431.10,100.4166
431.20,100.4135
431.30,100.4089
431.40,100.4028
431.50,100.3967
431.60,100.3967
431.70,100.3876
431.80,100.3860
431.90,100.3799
432.00,100.3799
432.10,100.3784
432.20,100.3815
432.30,100.3799
432.40,100.3769
432.50,100.3784
432.60,100.3708
432.70,100.3723
432.80,100.3693
432.90,100.3708
433.00,100.3738
433.10,100.3738
433.20,100.3769
433.30,100.3830
433.40,100.3815
433.50,100.3860
433.60,100.3952
433.70,100.3998
433.80,100.3967
433.90,100.3891
434.00,100.3876
434.10,100.3860
434.20,100.3830
434.30,100.3799
434.40,100.3769
434.50,100.3784
434.60,100.3708
434.70,100.3693
434.80,100.3662
434.90,100.3677
435.00,100.3708
435.10,100.3677
435.20,100.3693
435.30,100.3708
435.40,100.3738
435.50,100.3769
435.60,100.3799
435.70,100.3845
435.80,100.3830
435.90,100.3799
436.00,100.3799
436.10,100.3754
436.20,100.3769
436.30,100.3784
436.40,100.3738
436.50,100.3723
436.60,100.3723
436.70,100.3738
436.80,100.3754
436.90,100.3769
437.00,100.3860
437.10,100.3845
437.20,100.3784
437.30,100.3738
437.40,100.3677
437.50,100.3601
437.60,100.3586
437.70,100.3555
437.80,100.3571
437.90,100.3571
438.00,100.3510
438.10,100.3510
438.20,100.3540
438.30,100.3571
438.40,100.3601
438.50,100.3601
438.60,100.3677
438.70,100.3677
438.80,100.3708
438.90,100.3708
439.00,100.3693
439.10,100.3708
439.20,100.3647
439.30,100.3647
439.40,100.3647
439.50,100.3662
439.60,100.3662
439.70,100.3693
439.80,100.3708
439.90,100.3662
440.00,100.3601
440.10,100.3586
440.20,100.3586
440.30,100.3586
440.40,100.3586
440.50,100.3616
440.60,100.3632
440.70,100.3555
440.80,100.3479
440.90,100.3448
441.00,100.3403
441.10,100.3418
441.20,100.3448
441.30,100.3433
441.40,100.3448
441.50,100.3448
441.60,100.3418
441.70,100.3403
441.80,100.3372
441.90,100.3418
442.00,100.3448
442.10,100.3510
442.20,100.3555
442.30,100.3540
442.40,100.3525
442.50,100.3479
442.60,100.3479
442.70,100.3403
442.80,100.3357
442.90,100.3372
443.00,100.3433
443.10,100.3525
443.20,100.3525
443.30,100.3601
443.40,100.3601
443.50,100.3632
443.60,100.3571
443.70,100.3555
443.80,100.3540
443.90,100.3586
444.00,100.3540
444.10,100.3525
444.20,100.3525
444.30,100.3510
444.40,100.3525
444.50,100.3555
444.60,100.3571
444.70,100.3616
444.80,100.3601
444.90,100.3571
445.00,100.3525
445.10,100.3555
445.20,100.3525
445.30,100.3525
445.40,100.3601
445.50,100.3586
445.60,100.3555
445.70,100.3510
445.80,100.3555
445.90,100.3510
446.00,100.3510
446.10,100.3555
446.20,100.3601
446.30,100.3677
446.40,100.3708
446.50,100.3738
446.60,100.3708
446.70,100.3647
446.80,100.3571
446.90,100.3525
447.00,100.3571
447.10,100.3601
447.20,100.3677
447.30,100.3769
447.40,100.3799
447.50,100.3799
447.60,100.3754
447.70,100.3738
447.80,100.3754
447.90,100.3738
448.00,100.3723
448.10,100.3677
448.20,100.3647
448.30,100.3601
448.40,100.3540
448.50,100.3510
448.60,100.3433
448.70,100.3387
448.80,100.3372
448.90,100.3418
449.00,100.3403
449.10,100.3433
449.20,100.3464
449.30,100.3433
449.40,100.3418
449.50,100.3418
449.60,100.3448
449.70,100.3494
449.80,100.3494
449.90,100.3479
450.00,100.3494
450.10,100.3494
450.20,100.3479
450.30,100.3448
450.40,100.3494
450.50,100.3494
450.60,100.3494
450.70,100.3525
450.80,100.3555
450.90,100.3586
451.00,100.3586
451.10,100.3601
451.20,100.3555
451.30,100.3571
451.40,100.3540
451.50,100.3586
451.60,100.3555
451.70,100.3571
451.80,100.3571
451.90,100.3555
452.00,100.3571
452.10,100.3601
452.20,100.3601
452.30,100.3616
452.40,100.3601
452.50,100.3601
452.60,100.3555
452.70,100.3586
452.80,100.3555
452.90,100.3571
453.00,100.3555
453.10,100.3494
453.20,100.3433
453.30,100.3403
453.40,100.3403
453.50,100.3418
453.60,100.3464
453.70,100.3494
453.80,100.3494
453.90,100.3464
454.00,100.3433
454.10,100.3418
454.20,100.3448
454.30,100.3479
454.40,100.3525
454.50,100.3555
454.60,100.3571
454.70,100.3586
454.80,100.3586
454.90,100.3571
455.00,100.3494
455.10,100.3448
455.20,100.3372
455.30,100.3326
455.40,100.3311
455.50,100.3357
455.60,100.3403
455.70,100.3433
455.80,100.3464
455.90,100.3510
456.00,100.3525
456.10,100.3540
456.20,100.3586
456.30,100.3571
456.40,100.3586
456.50,100.3586
456.60,100.3555
456.70,100.3525
456.80,100.3555
456.90,100.3571
457.00,100.3555
457.10,100.3540
457.20,100.3555
457.30,100.3540
457.40,100.3510
457.50,100.3525
457.60,100.3555
457.70,100.3571
457.80,100.3586
457.90,100.3555
458.00,100.3540
458.10,100.3571
458.20,100.3555
458.30,100.3510
458.40,100.3494
458.50,100.3494
458.60,100.3525
458.70,100.3494
458.80,100.3525
458.90,100.3555
459.00,100.3540
459.10,100.3555
459.20,100.3479
459.30,100.3433
459.40,100.3464
459.50,100.3464
459.60,100.3418
459.70,100.3433
459.80,100.3418
459.90,100.3372
460.00,100.3281
460.10,100.3296
460.20,100.3326
460.30,100.3342
460.40,100.3403
460.50,100.3464
460.60,100.3571
460.70,100.3601
460.80,100.3632
460.90,100.3677
461.00,100.3754
461.10,100.3769
461.20,100.3754
461.30,100.3754
461.40,100.3769
461.50,100.3723
461.60,100.3723
461.70,100.3738
461.80,100.3677
461.90,100.3662
462.00,100.3754
462.10,100.3723
462.20,100.3708
462.30,100.3708
462.40,100.3738
462.50,100.3754
462.60,100.3754
462.70,100.3723
462.80,100.3738
462.90,100.3738
463.00,100.3723
463.10,100.3647
463.20,100.3540
463.30,100.3510
463.40,100.3448
463.50,100.3387
463.60,100.3342
463.70,100.3372
463.80,100.3418
463.90,100.3372
464.00,100.3357
464.10,100.3311
464.20,100.3296
464.30,100.3296
464.40,100.3311
464.50,100.3372
464.60,100.3479
464.70,100.3601
464.80,100.3693
464.90,100.3769
465.00,100.3815
465.10,100.3860
465.20,100.3815
465.30,100.3769
465.40,100.3708
465.50,100.3647
465.60,100.3571
465.70,100.3510
465.80,100.3479
465.90,100.3525
466.00,100.3525
466.10,100.3571
466.20,100.3586
466.30,100.3601
466.40,100.3632
466.50,100.3662
466.60,100.3723
466.70,100.3693
466.80,100.3738
466.90,100.3738
467.00,100.3708
467.10,100.3632
467.20,100.3586
467.30,100.3571
467.40,100.3525
467.50,100.3448
467.60,100.3418
467.70,100.3372
467.80,100.3326
467.90,100.3296
468.00,100.3296
468.10,100.3265
468.20,100.3220
468.30,100.3250
468.40,100.3235
468.50,100.3220
468.60,100.3204
468.70,100.3235
468.80,100.3220
468.90,100.3235
469.00,100.3250
469.10,100.3296
469.20,100.3311
469.30,100.3311
469.40,100.3342
469.50,100.3357
469.60,100.3387
469.70,100.3387
469.80,100.3448
469.90,100.3510
470.00,100.3464
470.10,100.3448
470.20,100.3403
470.30,100.3357
470.40,100.3342
470.50,100.3265
470.60,100.3281
470.70,100.3220
470.80,100.3189
470.90,100.3204
471.00,100.3220
471.10,100.3189
471.20,100.3204
471.30,100.3296
471.40,100.3342
471.50,100.3296
471.60,100.3326
471.70,100.3342
471.80,100.3311
471.90,100.3250
472.00,100.3281
472.10,100.3342
472.20,100.3357
472.30,100.3342
472.40,100.3372
472.50,100.3403
472.60,100.3448
472.70,100.3433
472.80,100.3418
472.90,100.3464
473.00,100.3464
473.10,100.3387
473.20,100.3403
473.30,100.3357
473.40,100.3342
473.50,100.3265
473.60,100.3235
473.70,100.3189
473.80,100.3174
473.90,100.3159
474.00,100.3128
474.10,100.3143
474.20,100.3174
474.30,100.3159
474.40,100.3159
474.50,100.3159
474.60,100.3189
474.70,100.3159
474.80,100.3098
474.90,100.3128
475.00,100.3174
475.10,100.3189
475.20,100.3265
475.30,100.3342
475.40,100.3372
475.50,100.3387
475.60,100.3387
475.70,100.3357
475.80,100.3372
475.90,100.3418
476.00,100.3433
476.10,100.3479
476.20,100.3525
476.30,100.3571
476.40,100.3586
476.50,100.3601
476.60,100.3616
476.70,100.3601
476.80,100.3601
476.90,100.3555
477.00,100.3510
477.10,100.3433
477.20,100.3448
477.30,100.3372
477.40,100.3326
477.50,100.3357
477.60,100.3357
477.70,100.3342
477.80,100.3342
477.90,100.3326
478.00,100.3250
478.10,100.3220
478.20,100.3204
478.30,100.3220
478.40,100.3235
478.50,100.3296
478.60,100.3387
478.70,100.3418
478.80,100.3418
478.90,100.3433
479.00,100.3418
479.10,100.3403
479.20,100.3372
479.30,100.3372
479.40,100.3357
479.50,100.3311
479.60,100.3265
479.70,100.3220
479.80,100.3159
479.90,100.3067
480.00,100.2991
480.10,100.2975
480.20,100.2991
480.30,100.3021
480.40,100.2991
480.50,100.3098
480.60,100.3159
480.70,100.3174
480.80,100.3189
480.90,100.3250
481.00,100.3296
481.10,100.3311
481.20,100.3326
481.30,100.3296
481.40,100.3296
481.50,100.3296
481.60,100.3265
481.70,100.3250
481.80,100.3281
481.90,100.3342
482.00,100.3387
482.10,100.3387
482.20,100.3387
482.30,100.3418
482.40,100.3448
482.50,100.3342
482.60,100.3357
482.70,100.3357
482.80,100.3387
482.90,100.3372
483.00,100.3357
483.10,100.3387
483.20,100.3357
483.30,100.3342
483.40,100.3296
483.50,100.3265
483.60,100.3281
483.70,100.3265
483.80,100.3250
483.90,100.3189
484.00,100.3250
484.10,100.3311
484.20,100.3311
484.30,100.3311
484.40,100.3387
484.50,100.3387
484.60,100.3326
484.70,100.3296
484.80,100.3342
484.90,100.3357
485.00,100.3342
485.10,100.3357
485.20,100.3357
485.30,100.3357
485.40,100.3357
485.50,100.3403
485.60,100.3418
485.70,100.3403
485.80,100.3403
485.90,100.3387
486.00,100.3403
486.10,100.3342
486.20,100.3326
486.30,100.3357
486.40,100.3372
486.50,100.3387
486.60,100.3387
486.70,100.3372
486.80,100.3357
486.90,100.3387
487.00,100.3372
487.10,100.3357
487.20,100.3372
487.30,100.3372
487.40,100.3342
487.50,100.3342
487.60,100.3326
487.70,100.3311
487.80,100.3326
487.90,100.3357
488.00,100.3372
488.10,100.3387
488.20,100.3403
488.30,100.3418
488.40,100.3418
488.50,100.3403
488.60,100.3418
488.70,100.3418
488.80,100.3387
488.90,100.3342
489.00,100.3311
489.10,100.3296
489.20,100.3265
489.30,100.3281
489.40,100.3311
489.50,100.3342
489.60,100.3342
489.70,100.3296
489.80,100.3296
489.90,100.3281
490.00,100.3220
490.10,100.3220
490.20,100.3235
490.30,100.3235
490.40,100.3235
490.50,100.3250
490.60,100.3250
490.70,100.3265
490.80,100.3296
490.90,100.3296
491.00,100.3296
491.10,100.3265
491.20,100.3250
491.30,100.3204
491.40,100.3189
491.50,100.3189
491.60,100.3220
491.70,100.3235
491.80,100.3281
491.90,100.3281
492.00,100.3296
492.10,100.3311
492.20,100.3311
492.30,100.3250
492.40,100.3235
492.50,100.3204
492.60,100.3143
492.70,100.3082
492.80,100.3128
492.90,100.3174
493.00,100.3143
493.10,100.3143
493.20,100.3113
493.30,100.3098
493.40,100.3067
493.50,100.3067
493.60,100.3082
493.70,100.3128
493.80,100.3128
493.90,100.3159
494.00,100.3204
494.10,100.3159
494.20,100.3143
494.30,100.3143
494.40,100.3143
494.50,100.3082
494.60,100.3159
494.70,100.3189
494.80,100.3113
494.90,100.3098
495.00,100.3113
495.10,100.3098
495.20,100.3067
495.30,100.3113
495.40,100.3159
495.50,100.3174
495.60,100.3189
495.70,100.3250
495.80,100.3265
495.90,100.3311
496.00,100.3342
496.10,100.3326
496.20,100.3296
496.30,100.3250
496.40,100.3265
496.50,100.3235
496.60,100.3250
496.70,100.3265
496.80,100.3342
496.90,100.3372
497.00,100.3372
497.10,100.3418
497.20,100.3464
497.30,100.3479
497.40,100.3479
497.50,100.3479
497.60,100.3525
497.70,100.3510
497.80,100.3494
497.90,100.3479
498.00,100.3479
498.10,100.3433
498.20,100.3403
498.30,100.3342
498.40,100.3342
498.50,100.3311
498.60,100.3265
498.70,100.3220
498.80,100.3174
498.90,100.3128
499.00,100.3128
499.10,100.3159
499.20,100.3220
499.30,100.3281
499.40,100.3296
499.50,100.3311
499.60,100.3281
499.70,100.3235
499.80,100.3204
499.90,100.3174
500.00,100.3159
500.10,100.3143
500.20,100.3159
500.30,100.3159
500.40,100.3143
500.50,100.3159
500.60,100.3143
500.70,100.3098
500.80,100.3067
500.90,100.3021
501.00,100.2975
501.10,100.2975
501.20,100.2975
501.30,100.2930
501.40,100.2899
501.50,100.2960
501.60,100.2975
501.70,100.3006
501.80,100.3067
501.90,100.3128
502.00,100.3128
502.10,100.3128
502.20,100.3143
502.30,100.3128
502.40,100.3113
502.50,100.3113
502.60,100.3174
502.70,100.3174
502.80,100.3189
502.90,100.3159
503.00,100.3159
503.10,100.3143
503.20,100.3143
503.30,100.3143
503.40,100.3128
503.50,100.3143
503.60,100.3143
503.70,100.3113
503.80,100.3082
503.90,100.3067
504.00,100.3052
504.10,100.3006
504.20,100.3006
504.30,100.3052
504.40,100.3067
504.50,100.3098
504.60,100.3113
504.70,100.3098
504.80,100.3036
504.90,100.2914
505.00,100.2823
505.10,100.2808
505.20,100.2823
505.30,100.2838
505.40,100.2853
505.50,100.2884
505.60,100.2869
505.70,100.2853
505.80,100.2823
505.90,100.2838
506.00,100.2838
506.10,100.2838
506.20,100.2808
506.30,100.2716
506.40,100.2701
506.50,100.2686
506.60,100.2686
506.70,100.2716
506.80,100.2777
506.90,100.2777
507.00,100.2777
507.10,100.2762
507.20,100.2731
507.30,100.2716
507.40,100.2777
507.50,100.2808
507.60,100.2884
507.70,100.2960
507.80,100.3021
507.90,100.3052
508.00,100.3128
508.10,100.3189
508.20,100.3204
508.30,100.3235
508.40,100.3204
508.50,100.3128
508.60,100.3052
508.70,100.2975
508.80,100.2884
508.90,100.2869
509.00,100.2914
509.10,100.2914
509.20,100.2975
509.30,100.3021
509.40,100.2945
509.50,100.2899
509.60,100.2899
509.70,100.2884
509.80,100.2869
509.90,100.2899
510.00,100.2960
510.10,100.2960
510.20,100.2975
510.30,100.2960
510.40,100.2945
510.50,100.2884
510.60,100.2914
510.70,100.2930
510.80,100.2930
510.90,100.2945
511.00,100.2960
511.10,100.2945
511.20,100.2869
511.30,100.2869
511.40,100.2853
511.50,100.2823
511.60,100.2838
511.70,100.2869
511.80,100.2884
511.90,100.2853
512.00,100.2899
512.10,100.2899
512.20,100.2945
512.30,100.2930
512.40,100.2899
512.50,100.2869
512.60,100.2823
512.70,100.2792
512.80,100.2762
512.90,100.2747
513.00,100.2762
513.10,100.2808
513.20,100.2823
513.30,100.2838
513.40,100.2930
513.50,100.2945
513.60,100.2960
513.70,100.2960
513.80,100.2960
513.90,100.2899
514.00,100.2914
514.10,100.2853
514.20,100.2808
514.30,100.2762
514.40,100.2777
514.50,100.2747
514.60,100.2762
514.70,100.2808
514.80,100.2838
514.90,100.2838
515.00,100.2853
515.10,100.2838
515.20,100.2838
515.30,100.2853
515.40,100.2823
515.50,100.2823
515.60,100.2777
515.70,100.2731
515.80,100.2701
515.90,100.2686
516.00,100.2625
516.10,100.2640
516.20,100.2655
516.30,100.2640
516.40,100.2625
516.50,100.2655
516.60,100.2716
516.70,100.2716
516.80,100.2747
516.90,100.2762
517.00,100.2838
517.10,100.2853
517.20,100.2930
517.30,100.2991
517.40,100.3036
517.50,100.3036
517.60,100.3052
517.70,100.3036
517.80,100.2960
517.90,100.2930
518.00,100.2899
518.10,100.2838
518.20,100.2808
518.30,100.2869
518.40,100.2869
518.50,100.2869
518.60,100.2823
518.70,100.2792
518.80,100.2716
518.90,100.2640
519.00,100.2625
519.10,100.2640
519.20,100.2655
519.30,100.2686
519.40,100.2670
519.50,100.2686
519.60,100.2640
519.70,100.2625
519.80,100.2655
519.90,100.2686
520.00,100.2670
520.10,100.2655
520.20,100.2686
520.30,100.2686
520.40,100.2655
520.50,100.2686
520.60,100.2716
520.70,100.2792
520.80,100.2792
520.90,100.2808
521.00,100.2838
521.10,100.2853
521.20,100.2808
521.30,100.2777
521.40,100.2808
521.50,100.2808
521.60,100.2792
521.70,100.2808
521.80,100.2823
521.90,100.2853
522.00,100.2823
522.10,100.2808
522.20,100.2808
522.30,100.2792
522.40,100.2777
522.50,100.2777
522.60,100.2777
522.70,100.2792
522.80,100.2777
522.90,100.2747
523.00,100.2686
523.10,100.2670
523.20,100.2625
523.30,100.2640
523.40,100.2640
523.50,100.2655
523.60,100.2731
523.70,100.2716
523.80,100.2701
523.90,100.2655
524.00,100.2640
524.10,100.2609
524.20,100.2609
524.30,100.2625
524.40,100.2655
524.50,100.2655
524.60,100.2640
524.70,100.2640
524.80,100.2640
524.90,100.2609
525.00,100.2594
525.10,100.2563
525.20,100.2548
525.30,100.2487
525.40,100.2441
525.50,100.2411
525.60,100.2457
525.70,100.2472
525.80,100.2487
525.90,100.2579
526.00,100.2686
526.10,100.2701
526.20,100.2670
526.30,100.2701
526.40,100.2686
526.50,100.2625
526.60,100.2625
526.70,100.2670
526.80,100.2625
526.90,100.2625
527.00,100.2594
527.10,100.2548
527.20,100.2533
527.30,100.2533
527.40,100.2518
527.50,100.2472
527.60,100.2487
527.70,100.2472
527.80,100.2487
527.90,100.2563
528.00,100.2609
528.10,100.2640
528.20,100.2640
528.30,100.2609
528.40,100.2563
528.50,100.2533
528.60,100.2609
528.70,100.2625
528.80,100.2716
528.90,100.2747
529.00,100.2762
529.10,100.2731
529.20,100.2686
529.30,100.2609
529.40,100.2548
529.50,100.2579
529.60,100.2579
529.70,100.2579
529.80,100.2579
529.90,100.2594
530.00,100.2548
530.10,100.2548
530.20,100.2548
530.30,100.2518
530.40,100.2518
530.50,100.2548
530.60,100.2518
530.70,100.2487
530.80,100.2487
530.90,100.2502
531.00,100.2487
531.10,100.2502
531.20,100.2502
531.30,100.2502
531.40,100.2533
531.50,100.2518
531.60,100.2457
531.70,100.2457
531.80,100.2518
531.90,100.2533
532.00,100.2518
532.10,100.2563
532.20,100.2609
532.30,100.2609
532.40,100.2594
532.50,100.2609
532.60,100.2563
532.70,100.2548
532.80,100.2533
532.90,100.2487
533.00,100.2457
533.10,100.2365
533.20,100.2380
533.30,100.2411
533.40,100.2457
533.50,100.2533
533.60,100.2579
533.70,100.2609
533.80,100.2594
533.90,100.2533
534.00,100.2441
534.10,100.2380
534.20,100.2335
534.30,100.2319
534.40,100.2319
534.50,100.2350
534.60,100.2380
534.70,100.2411
534.80,100.2426
534.90,100.2426
535.00,100.2487
535.10,100.2563
535.20,100.2594
535.30,100.2701
535.40,100.2838
535.50,100.2945
535.60,100.2991
535.70,100.2960
535.80,100.2884
535.90,100.2823
536.00,100.2792
536.10,100.2762
536.20,100.2686
536.30,100.2762
536.40,100.2716
536.50,100.2716
536.60,100.2625
536.70,100.2518
536.80,100.2487
536.90,100.2426
537.00,100.2304
537.10,100.2213
537.20,100.2136
537.30,100.2090
537.40,100.2045
537.50,100.2045
537.60,100.2029
537.70,100.2014
537.80,100.2014
537.90,100.1968
538.00,100.1862
538.10,100.1816
538.20,100.1801
538.30,100.1755
538.40,100.1755
538.50,100.1801
538.60,100.1862
538.70,100.1938
538.80,100.1968
538.90,100.1984
539.00,100.2029
539.10,100.2045
539.20,100.2014
539.30,100.1984
539.40,100.1999
539.50,100.2045
539.60,100.2029
539.70,100.2014
539.80,100.2029
539.90,100.2029
540.00,100.1984
540.10,100.1892
540.20,100.1831
540.30,100.1816
540.40,100.1846
540.50,100.1831
540.60,100.1846
540.70,100.1862
540.80,100.1831
540.90,100.1785
541.00,100.1724
541.10,100.1694
541.20,100.1694
541.30,100.1709
541.40,100.1724
541.50,100.1770
541.60,100.1755
541.70,100.1740
541.80,100.1770
541.90,100.1770
542.00,100.1770
542.10,100.1801
542.20,100.1831
542.30,100.1862
542.40,100.1877
542.50,100.1862
542.60,100.1846
542.70,100.1816
542.80,100.1801
542.90,100.1831
543.00,100.1907
543.10,100.1984
543.20,100.2014
543.30,100.2014
543.40,100.1984
543.50,100.1938
543.60,100.1877
543.70,100.1801
543.80,100.1801
543.90,100.1755
544.00,100.1724
544.10,100.1694
544.20,100.1709
544.30,100.1678
544.40,100.1633
544.50,100.1663
544.60,100.1663
544.70,100.1678
544.80,100.1694
544.90,100.1755
545.00,100.1785
545.10,100.1755
545.20,100.1724
545.30,100.1724
545.40,100.1740
545.50,100.1740
545.60,100.1801
545.70,100.1846
545.80,100.1877
545.90,100.1892
546.00,100.1892
546.10,100.1831
546.20,100.1755
546.30,100.1678
546.40,100.1602
546.50,100.1572
546.60,100.1572
546.70,100.1602
546.80,100.1663
546.90,100.1709
547.00,100.1724
547.10,100.1724
547.20,100.1755
547.30,100.1694
547.40,100.1663
547.50,100.1633
547.60,100.1633
547.70,100.1663
547.80,100.1678
547.90,100.1770
548.00,100.1831
548.10,100.1846
548.20,100.1831
548.30,100.1816
548.40,100.1785
548.50,100.1755
548.60,100.1724
548.70,100.1755
548.80,100.1770
548.90,100.1770
549.00,100.1755
549.10,100.1770
549.20,100.1770
549.30,100.1709
549.40,100.1694
549.50,100.1663
549.60,100.1617
549.70,100.1572
549.80,100.1556
549.90,100.1495
550.00,100.1465
550.10,100.1434
550.20,100.1404
550.30,100.1373
550.40,100.1373
550.50,100.1358
550.60,100.1373
550.70,100.1328
550.80,100.1297
550.90,100.1251
551.00,100.1297
551.10,100.1297
551.20,100.1312
551.30,100.1328
551.40,100.1373
551.50,100.1343
551.60,100.1297
551.70,100.1312
551.80,100.1358
551.90,100.1389
552.00,100.1495
552.10,100.1602
552.20,100.1663
552.30,100.1724
552.40,100.1770
552.50,100.1770
552.60,100.1755
552.70,100.1785
552.80,100.1785
552.90,100.1770
553.00,100.1740
553.10,100.1740
553.20,100.1694
553.30,100.1648
553.40,100.1602
553.50,100.1572
553.60,100.1541
553.70,100.1480
553.80,100.1419
553.90,100.1404
554.00,100.1404
554.10,100.1389
554.20,100.1389
554.30,100.1434
554.40,100.1450
554.50,100.1480
554.60,100.1480
554.70,100.1511
554.80,100.1511
554.90,100.1511
555.00,100.1480
555.10,100.1419
555.20,100.1358
555.30,100.1404
555.40,100.1404
555.50,100.1404
555.60,100.1434
555.70,100.1480
555.80,100.1526
555.90,100.1495
556.00,100.1495
556.10,100.1541
556.20,100.1556
556.30,100.1541
556.40,100.1526
556.50,100.1572
556.60,100.1617
556.70,100.1617
556.80,100.1572
556.90,100.1587
557.00,100.1556
557.10,100.1526
557.20,100.1495
557.30,100.1495
557.40,100.1526
557.50,100.1495
557.60,100.1434
557.70,100.1419
557.80,100.1404
557.90,100.1373
558.00,100.1343
558.10,100.1358
558.20,100.1373
558.30,100.1389
558.40,100.1434
558.50,100.1434
558.60,100.1373
558.70,100.1328
558.80,100.1328
558.90,100.1282
559.00,100.1266
559.10,100.1312
559.20,100.1343
559.30,100.1282
559.40,100.1282
559.50,100.1328
559.60,100.1312
559.70,100.1373
559.80,100.1450
559.90,100.1480
560.00,100.1450
560.10,100.1419
560.20,100.1450
560.30,100.1450
560.40,100.1511
560.50,100.1556
560.60,100.1587
560.70,100.1617
560.80,100.1587
560.90,100.1556
561.00,100.1511
561.10,100.1511
561.20,100.1526
561.30,100.1495
561.40,100.1495
561.50,100.1526
561.60,100.1526
561.70,100.1526
561.80,100.1511
561.90,100.1511
562.00,100.1480
562.10,100.1465
562.20,100.1480
562.30,100.1465
562.40,100.1465
562.50,100.1480
562.60,100.1495
562.70,100.1480
562.80,100.1434
562.90,100.1450
563.00,100.1404
563.10,100.1358
563.20,100.1328
563.30,100.1328
563.40,100.1343
563.50,100.1297
563.60,100.1312
563.70,100.1282
563.80,100.1282
563.90,100.1221
564.00,100.1114
564.10,100.1053
564.20,100.1053
564.30,100.1099
564.40,100.1099
564.50,100.1083
564.60,100.1099
564.70,100.1038
564.80,100.0992
564.90,100.0916
565.00,100.0946
565.10,100.0961
565.20,100.0961
565.30,100.1022
565.40,100.1007
565.50,100.1099
565.60,100.1114
565.70,100.1175
565.80,100.1221
565.90,100.1266
566.00,100.1328
566.10,100.1297
566.20,100.1251
566.30,100.1236
566.40,100.1266
566.50,100.1266
566.60,100.1236
566.70,100.1282
566.80,100.1297
566.90,100.1282
567.00,100.1236
567.10,100.1221
567.20,100.1251
567.30,100.1282
567.40,100.1312
567.50,100.1297
567.60,100.1312
567.70,100.1282
567.80,100.1282
567.90,100.1251
568.00,100.1190
568.10,100.1205
568.20,100.1236
568.30,100.1236
568.40,100.1221
568.50,100.1282
568.60,100.1373
568.70,100.1389
568.80,100.1404
568.90,100.1450
569.00,100.1465
569.10,100.1465
569.20,100.1465
569.30,100.1434
569.40,100.1404
569.50,100.1404
569.60,100.1404
569.70,100.1389
569.80,100.1389
569.90,100.1419
570.00,100.1404
570.10,100.1404
570.20,100.1404
570.30,100.1434
570.40,100.1434
570.50,100.1465
570.60,100.1465
570.70,100.1450
570.80,100.1404
570.90,100.1389
571.00,100.1358
571.10,100.1266
571.20,100.1236
571.30,100.1205
571.40,100.1175
571.50,100.1160
571.60,100.1160
571.70,100.1144
571.80,100.1144
571.90,100.1083
572.00,100.1083
572.10,100.1068
572.20,100.1053
572.30,100.1068
572.40,100.1099
572.50,100.1099
572.60,100.1068
572.70,100.1099
572.80,100.1129
572.90,100.1083
573.00,100.1053
573.10,100.1038
573.20,100.0931
573.30,100.0839
573.40,100.0793
573.50,100.0717
573.60,100.0671
573.70,100.0702
573.80,100.0793
573.90,100.0793
574.00,100.0839
574.10,100.0854
574.20,100.0870
574.30,100.0900
574.40,100.0900
574.50,100.0931
574.60,100.0992
574.70,100.1053
574.80,100.1099
574.90,100.1160
575.00,100.1175
575.10,100.1205
575.20,100.1190
575.30,100.1129
575.40,100.1083
575.50,100.1099
575.60,100.1083
575.70,100.1114
575.80,100.1129
575.90,100.1144
576.00,100.1175
576.10,100.1129
576.20,100.1083
576.30,100.1038
576.40,100.1022
576.50,100.0946
576.60,100.0885
576.70,100.0854
576.80,100.0854
576.90,100.0854
577.00,100.0885
577.10,100.0885
577.20,100.0854
577.30,100.0839
577.40,100.0763
577.50,100.0702
577.60,100.0641
577.70,100.0671
577.80,100.0687
577.90,100.0717
578.00,100.0824
578.10,100.0900
578.20,100.0946
578.30,100.0961
578.40,100.0992
578.50,100.0992
578.60,100.0992
578.70,100.0961
578.80,100.0977
578.90,100.0977
579.00,100.0977
579.10,100.1007
579.20,100.0992
579.30,100.1007
579.40,100.1022
579.50,100.1053
579.60,100.1038
579.70,100.1083
579.80,100.1144
579.90,100.1099
580.00,100.1083
580.10,100.1083
580.20,100.1114
580.30,100.1114
580.40,100.1175
580.50,100.1190
580.60,100.1160
580.70,100.1129
580.80,100.1083
580.90,100.1053
581.00,100.1022
581.10,100.1038
581.20,100.1068
581.30,100.1007
581.40,100.0977
581.50,100.0916
581.60,100.0839
581.70,100.0748
581.80,100.0717
581.90,100.0732
582.00,100.0732
582.10,100.0778
582.20,100.0778
582.30,100.0793
582.40,100.0763
582.50,100.0748
582.60,100.0778
582.70,100.0793
582.80,100.0839
582.90,100.0870
583.00,100.0900
583.10,100.0854
583.20,100.0839
583.30,100.0885
583.40,100.0885
583.50,100.0931
583.60,100.0992
583.70,100.1022
583.80,100.0961
583.90,100.0946
584.00,100.0931
584.10,100.0931
584.20,100.0946
584.30,100.0961
584.40,100.0977
584.50,100.0992
584.60,100.0977
584.70,100.0961
584.80,100.0916
584.90,100.0870
585.00,100.0839
585.10,100.0763
585.20,100.0717
585.30,100.0641
585.40,100.0580
585.50,100.0565
585.60,100.0580
585.70,100.0488
585.80,100.0488
585.90,100.0473
586.00,100.0458
586.10,100.0443
586.20,100.0473
586.30,100.0519
586.40,100.0610
586.50,100.0641
586.60,100.0641
586.70,100.0626
586.80,100.0626
586.90,100.0565
587.00,100.0534
587.10,100.0549
587.20,100.0580
587.30,100.0610
587.40,100.0641
587.50,100.0641
587.60,100.0671
587.70,100.0687
587.80,100.0671
587.90,100.0671
588.00,100.0671
588.10,100.0687
588.20,100.0687
588.30,100.0717
588.40,100.0717
588.50,100.0717
588.60,100.0702
588.70,100.0687
588.80,100.0671
588.90,100.0671
589.00,100.0702
589.10,100.0702
589.20,100.0687
589.30,100.0687
589.40,100.0702
589.50,100.0702
589.60,100.0687
589.70,100.0641
589.80,100.0595
589.90,100.0519
590.00,100.0412
590.10,100.0320
590.20,100.0305
590.30,100.0336
590.40,100.0305
590.50,100.0305
590.60,100.0320
590.70,100.0351
590.80,100.0336
590.90,100.0366
591.00,100.0412
591.10,100.0443
591.20,100.0473
591.30,100.0458
591.40,100.0443
591.50,100.0412
591.60,100.0381
591.70,100.0336
591.80,100.0351
591.90,100.0381
592.00,100.0381
592.10,100.0381
592.20,100.0427
592.30,100.0488
592.40,100.0473
592.50,100.0458
592.60,100.0473
592.70,100.0458
592.80,100.0397
592.90,100.0366
593.00,100.0412
593.10,100.0488
593.20,100.0565
593.30,100.0626
593.40,100.0656
593.50,100.0671
593.60,100.0641
593.70,100.0595
593.80,100.0565
593.90,100.0519
594.00,100.0519
594.10,100.0473
594.20,100.0427
594.30,100.0427
594.40,100.0412
594.50,100.0351
594.60,100.0229
594.70,100.0183
594.80,100.0153
594.90,100.0183
595.00,100.0229
595.10,100.0290
595.20,100.0381
595.30,100.0427
595.40,100.0473
595.50,100.0488
595.60,100.0519
595.70,100.0504
595.80,100.0519
595.90,100.0488
596.00,100.0427
596.10,100.0427
596.20,100.0412
596.30,100.0397
596.40,100.0336
596.50,100.0366
596.60,100.0397
596.70,100.0351
596.80,100.0381
596.90,100.0443
597.00,100.0427
597.10,100.0427
597.20,100.0427
597.30,100.0443
597.40,100.0397
597.50,100.0427
597.60,100.0458
597.70,100.0473
597.80,100.0443
597.90,100.0458
598.00,100.0473
598.10,100.0397
598.20,100.0351
598.30,100.0397
598.40,100.0443
598.50,100.0427
598.60,100.0412
598.70,100.0458
598.80,100.0381
598.90,100.0320
599.00,100.0259
599.10,100.0244
599.20,100.0183
599.30,100.0137
599.40,100.0092
599.50,100.0061
599.60,100.0046
599.70,100.0061
599.80,100.0107
599.90,100.0122
600.00,100.0137
600.10,100.0137
600.20,100.0092
600.30,100.0092
600.40,100.0076
600.50,100.0122
600.60,100.0198
600.70,100.0259
600.80,100.0259
600.90,100.0229
601.00,100.0198
601.10,100.0168
601.20,100.0153
601.30,100.0198
601.40,100.0275
601.50,100.0305
601.60,100.0336
601.70,100.0336
601.80,100.0290
601.90,100.0244
602.00,100.0198
602.10,100.0183
602.20,100.0183
602.30,100.0137
602.40,100.0168
602.50,100.0214
602.60,100.0259
602.70,100.0229
602.80,100.0259
602.90,100.0259
603.00,100.0244
603.10,100.0244
603.20,100.0290
603.30,100.0305
603.40,100.0320
603.50,100.0305
603.60,100.0290
603.70,100.0198
603.80,100.0122
603.90,100.0076
604.00,100.0092
604.10,100.0061
604.20,100.0076
604.30,100.0168
604.40,100.0214
604.50,100.0198
604.60,100.0198
604.70,100.0229
604.80,100.0198
604.90,100.0153
605.00,100.0137
605.10,100.0183
605.20,100.0198
605.30,100.0198
605.40,100.0275
605.50,100.0290
605.60,100.0259
605.70,100.0229
605.80,100.0244
605.90,100.0214
606.00,100.0183
606.10,100.0229
606.20,100.0275
606.30,100.0290
606.40,100.0305
606.50,100.0290
606.60,100.0275
606.70,100.0259
606.80,100.0229
606.90,100.0214
607.00,100.0275
607.10,100.0305
607.20,100.0336
607.30,100.0320
607.40,100.0336
607.50,100.0305
607.60,100.0229
607.70,100.0168
607.80,100.0122
607.90,100.0061
608.00,99.9985
608.10,99.9969
608.20,100.0015
608.30,100.0046
608.40,100.0092
608.50,100.0122
608.60,100.0168
608.70,100.0137
608.80,100.0137
608.90,100.0107
609.00,100.0122
609.10,100.0137
609.20,100.0183
609.30,100.0183
609.40,100.0183
609.50,100.0244
609.60,100.0290
609.70,100.0275
609.80,100.0244
609.90,100.0229
610.00,100.0183
610.10,100.0076
610.20,100.0015
610.30,100.0015
610.40,99.9985
610.50,99.9985
610.60,100.0015
610.70,100.0031
610.80,100.0031
610.90,100.0061
611.00,100.0122
611.10,100.0198
611.20,100.0183
611.30,100.0137
611.40,100.0107
611.50,100.0107
611.60,100.0076
611.70,100.0061
611.80,100.0137
611.90,100.0183
612.00,100.0198
612.10,100.0214
612.20,100.0259
612.30,100.0290
612.40,100.0320
612.50,100.0320
612.60,100.0351
612.70,100.0320
612.80,100.0275
612.90,100.0214
613.00,100.0168
613.10,100.0168
613.20,100.0183
613.30,100.0122
613.40,100.0122
613.50,100.0122
613.60,100.0092
613.70,100.0015
613.80,100.0015
613.90,100.0000
614.00,99.9969
614.10,99.9985
614.20,100.0031
614.30,100.0046
614.40,100.0046
614.50,100.0015
614.60,99.9985
614.70,99.9924
614.80,99.9878
614.90,99.9802
615.00,99.9786
615.10,99.9771
615.20,99.9771
615.30,99.9802
615.40,99.9863
615.50,99.9893
615.60,99.9908
615.70,99.9924
615.80,99.9924
615.90,99.9878
616.00,99.9908
616.10,99.9954
616.20,99.9954
616.30,99.9969
616.40,99.9985
616.50,99.9969
616.60,100.0000
616.70,100.0015
616.80,100.0015
616.90,100.0046
617.00,100.0061
617.10,100.0031
617.20,100.0015
617.30,100.0015
617.40,100.0046
617.50,100.0046
617.60,100.0046
617.70,100.0076
617.80,100.0107
617.90,100.0122
618.00,100.0107
618.10,100.0107
618.20,100.0076
618.30,100.0000
618.40,99.9924
618.50,99.9832
618.60,99.9802
618.70,99.9786
618.80,99.9802
618.90,99.9832
619.00,99.9832
619.10,99.9832
619.20,99.9832
619.30,99.9817
619.40,99.9802
619.50,99.9771
619.60,99.9771
619.70,99.9771
619.80,99.9786
619.90,99.9741
620.00,99.9741
620.10,99.9741
620.20,99.9741
620.30,99.9756
620.40,99.9771
620.50,99.9817
620.60,99.9832
620.70,99.9924
620.80,99.9969
620.90,99.9954
621.00,99.9893
621.10,99.9863
621.20,99.9756
621.30,99.9664
621.40,99.9619
621.50,99.9664
621.60,99.9664
621.70,99.9695
621.80,99.9741
621.90,99.9802
622.00,99.9832
622.10,99.9817
622.20,99.9771
622.30,99.9756
622.40,99.9725
622.50,99.9664
622.60,99.9649
622.70,99.9619
622.80,99.9619
622.90,99.9588
623.00,99.9603
623.10,99.9619
623.20,99.9649
623.30,99.9710
623.40,99.9802
623.50,99.9847
623.60,99.9863
623.70,99.9908
623.80,99.9878
623.90,99.9847
624.00,99.9817
624.10,99.9817
624.20,99.9832
624.30,99.9847
624.40,99.9878
624.50,99.9878
624.60,99.9863
624.70,99.9817
624.80,99.9756
624.90,99.9725
625.00,99.9710
625.10,99.9695
625.20,99.9634
625.30,99.9664
625.40,99.9619
625.50,99.9603
625.60,99.9527
625.70,99.9496
625.80,99.9512
625.90,99.9481
626.00,99.9496
626.10,99.9527
626.20,99.9557
626.30,99.9588
626.40,99.9588
626.50,99.9588
626.60,99.9542
626.70,99.9527
626.80,99.9496
626.90,99.9542
627.00,99.9542
627.10,99.9573
627.20,99.9649
627.30,99.9710
627.40,99.9710
627.50,99.9710
627.60,99.9710
627.70,99.9695
627.80,99.9680
627.90,99.9649
628.00,99.9634
628.10,99.9664
628.20,99.9649
628.30,99.9603
628.40,99.9542
628.50,99.9557
628.60,99.9619
628.70,99.9603
628.80,99.9588
628.90,99.9588
629.00,99.9573
629.10,99.9542
629.20,99.9512
629.30,99.9512
629.40,99.9481
629.50,99.9481
629.60,99.9451
629.70,99.9405
629.80,99.9359
629.90,99.9359
630.00,99.9374
630.10,99.9344
630.20,99.9359
630.30,99.9359
630.40,99.9344
630.50,99.9329
630.60,99.9298
630.70,99.9283
630.80,99.9283
630.90,99.9283
631.00,99.9283
631.10,99.9313
631.20,99.9344
631.30,99.9359
631.40,99.9374
631.50,99.9451
631.60,99.9512
631.70,99.9512
631.80,99.9481
631.90,99.9451
632.00,99.9405
632.10,99.9344
632.20,99.9313
632.30,99.9359
632.40,99.9405
632.50,99.9435
632.60,99.9405
632.70,99.9344
632.80,99.9298
632.90,99.9237
633.00,99.9207
633.10,99.9207
633.20,99.9252
633.30,99.9344
633.40,99.9390
633.50,99.9481
633.60,99.9557
633.70,99.9603
633.80,99.9603
633.90,99.9664
634.00,99.9695
634.10,99.9664
634.20,99.9634
634.30,99.9573
634.40,99.9542
634.50,99.9451
634.60,99.9405
634.70,99.9374
634.80,99.9359
634.90,99.9359
635.00,99.9405
635.10,99.9420
635.20,99.9405
635.30,99.9405
635.40,99.9435
635.50,99.9451
635.60,99.9420
635.70,99.9390
635.80,99.9390
635.90,99.9374
636.00,99.9374
636.10,99.9374
636.20,99.9374
636.30,99.9405
636.40,99.9451
636.50,99.9451
636.60,99.9466
636.70,99.9466
636.80,99.9435
636.90,99.9405
637.00,99.9344
637.10,99.9329
637.20,99.9344
637.30,99.9374
637.40,99.9374
637.50,99.9359
637.60,99.9359
637.70,99.9298
637.80,99.9222
637.90,99.9176
638.00,99.9176
638.10,99.9130
638.20,99.9130
638.30,99.9191
638.40,99.9176
638.50,99.9146
638.60,99.9146
638.70,99.9207
638.80,99.9222
638.90,99.9191
639.00,99.9222
639.10,99.9268
639.20,99.9237
639.30,99.9237
639.40,99.9222
639.50,99.9252
639.60,99.9237
639.70,99.9252
639.80,99.9268
639.90,99.9268
640.00,99.9298
640.10,99.9344
640.20,99.9359
640.30,99.9359
640.40,99.9329
640.50,99.9359
640.60,99.9313
640.70,99.9283
640.80,99.9313
640.90,99.9313
641.00,99.9344
641.10,99.9344
641.20,99.9374
641.30,99.9329
641.40,99.9283
641.50,99.9237
641.60,99.9207
641.70,99.9130
641.80,99.9115
641.90,99.9115
642.00,99.9146
642.10,99.9176
642.20,99.9237
642.30,99.9268
642.40,99.9359
642.50,99.9374
642.60,99.9390
642.70,99.9390
642.80,99.9390
642.90,99.9390
643.00,99.9390
643.10,99.9405
643.20,99.9405
643.30,99.9405
643.40,99.9405
643.50,99.9359
643.60,99.9329
643.70,99.9283
643.80,99.9252
643.90,99.9222
644.00,99.9191
644.10,99.9161
644.20,99.9161
644.30,99.9146
644.40,99.9100
644.50,99.9100
644.60,99.9084
644.70,99.9054
644.80,99.9069
644.90,99.9069
645.00,99.9069
645.10,99.9054
645.20,99.9069
645.30,99.9084
645.40,99.9100
645.50,99.9115
645.60,99.9161
645.70,99.9207
645.80,99.9237
645.90,99.9237
646.00,99.9298
646.10,99.9283
646.20,99.9237
646.30,99.9191
646.40,99.9176
646.50,99.9130
646.60,99.9100
646.70,99.9084
646.80,99.9054
646.90,99.9054
647.00,99.9023
647.10,99.8947
647.20,99.8886
647.30,99.8901
647.40,99.8901
647.50,99.8901
647.60,99.8962
647.70,99.8993
647.80,99.9008
647.90,99.8993
648.00,99.8978
648.10,99.8962
648.20,99.8932
648.30,99.8917
648.40,99.8917
648.50,99.8962
648.60,99.8917
648.70,99.8901
648.80,99.8932
648.90,99.8932
649.00,99.8947
649.10,99.9008
649.20,99.9069
649.30,99.9084
649.40,99.9130
649.50,99.9161
649.60,99.9161
649.70,99.9146
649.80,99.9207
649.90,99.9237
650.00,99.9268
