"LG釭輿1 - RawData"
"Wavelength nm.","T%"
420.00,95.1477
420.10,95.1538
420.20,95.1569
420.30,95.1691
420.40,95.1797
420.50,95.1889
420.60,95.1904
420.70,95.2057
420.80,95.2103
420.90,95.2133
421.00,95.2148
421.10,95.2255
421.20,95.2362
421.30,95.2362
421.40,95.2454
421.50,95.2499
421.60,95.2560
421.70,95.2698
421.80,95.2774
421.90,95.2866
422.00,95.2927
422.10,95.3049
422.20,95.3094
422.30,95.3110
422.40,95.3125
422.50,95.3171
422.60,95.3262
422.70,95.3323
422.80,95.3430
422.90,95.3476
423.00,95.3644
423.10,95.3766
423.20,95.3796
423.30,95.3857
423.40,95.3903
423.50,95.3934
423.60,95.3888
423.70,95.3934
423.80,95.4010
423.90,95.4056
424.00,95.4132
424.10,95.4147
424.20,95.4224
424.30,95.4315
424.40,95.4361
424.50,95.4407
424.60,95.4544
424.70,95.4742
424.80,95.4895
424.90,95.5048
425.00,95.5246
425.10,95.5276
425.20,95.5383
425.30,95.5399
425.40,95.5368
425.50,95.5368
425.60,95.5475
425.70,95.5521
425.80,95.5612
425.90,95.5750
426.00,95.5780
426.10,95.5795
426.20,95.5734
426.30,95.5765
426.40,95.5734
426.50,95.5688
426.60,95.5795
426.70,95.5856
426.80,95.5902
426.90,95.5978
427.00,95.6039
427.10,95.6146
427.20,95.6207
427.30,95.6299
427.40,95.6314
427.50,95.6390
427.60,95.6436
427.70,95.6451
427.80,95.6543
427.90,95.6619
428.00,95.6696
428.10,95.6726
428.20,95.6802
428.30,95.6879
428.40,95.6970
428.50,95.7047
428.60,95.7092
428.70,95.7153
428.80,95.7245
428.90,95.7306
429.00,95.7336
429.10,95.7397
429.20,95.7520
429.30,95.7565
429.40,95.7596
429.50,95.7581
429.60,95.7581
429.70,95.7565
429.80,95.7581
429.90,95.7596
430.00,95.7642
430.10,95.7718
430.20,95.7764
430.30,95.7870
430.40,95.7977
430.50,95.8115
430.60,95.8252
430.70,95.8374
430.80,95.8450
430.90,95.8481
431.00,95.8557
431.10,95.8542
431.20,95.8557
431.30,95.8542
431.40,95.8572
431.50,95.8557
431.60,95.8496
431.70,95.8527
431.80,95.8572
431.90,95.8588
432.00,95.8664
432.10,95.8740
432.20,95.8817
432.30,95.8832
432.40,95.8893
432.50,95.8969
432.60,95.9015
432.70,95.9061
432.80,95.9106
432.90,95.9152
433.00,95.9167
433.10,95.9320
433.20,95.9412
433.30,95.9488
433.40,95.9549
433.50,95.9656
433.60,95.9702
433.70,95.9717
433.80,95.9778
433.90,95.9900
434.00,95.9915
434.10,95.9961
434.20,96.0022
434.30,96.0022
434.40,96.0007
434.50,96.0052
434.60,96.0114
434.70,96.0114
434.80,96.0205
434.90,96.0236
435.00,96.0236
435.10,96.0251
435.20,96.0312
435.30,96.0312
435.40,96.0312
435.50,96.0388
435.60,96.0434
435.70,96.0480
435.80,96.0556
435.90,96.0724
436.00,96.0846
436.10,96.0861
436.20,96.0938
436.30,96.0968
436.40,96.0892
436.50,96.0861
436.60,96.0846
436.70,96.0876
436.80,96.0907
436.90,96.0907
437.00,96.1044
437.10,96.1090
437.20,96.1197
437.30,96.1227
437.40,96.1273
437.50,96.1273
437.60,96.1288
437.70,96.1334
437.80,96.1411
437.90,96.1395
438.00,96.1441
438.10,96.1456
438.20,96.1502
438.30,96.1472
438.40,96.1563
438.50,96.1563
438.60,96.1639
438.70,96.1777
438.80,96.1807
438.90,96.1838
439.00,96.1899
439.10,96.1960
439.20,96.1990
439.30,96.2051
439.40,96.2097
439.50,96.2173
439.60,96.2280
439.70,96.2357
439.80,96.2463
439.90,96.2479
440.00,96.2509
440.10,96.2555
440.20,96.2585
440.30,96.2570
440.40,96.2570
440.50,96.2646
440.60,96.2677
440.70,96.2723
440.80,96.2830
440.90,96.2891
441.00,96.2860
441.10,96.2860
441.20,96.2891
441.30,96.2875
441.40,96.2875
441.50,96.2906
441.60,96.3013
441.70,96.3120
441.80,96.3135
441.90,96.3165
442.00,96.3196
442.10,96.3211
442.20,96.3196
442.30,96.3242
442.40,96.3287
442.50,96.3348
442.60,96.3364
442.70,96.3364
442.80,96.3440
442.90,96.3501
443.00,96.3562
443.10,96.3669
443.20,96.3715
443.30,96.3730
443.40,96.3730
443.50,96.3760
443.60,96.3760
443.70,96.3806
443.80,96.3821
443.90,96.3852
444.00,96.3867
444.10,96.3837
444.20,96.3882
444.30,96.3943
444.40,96.4005
444.50,96.4050
444.60,96.4127
444.70,96.4249
444.80,96.4355
444.90,96.4401
445.00,96.4447
445.10,96.4493
445.20,96.4554
445.30,96.4523
445.40,96.4493
445.50,96.4478
445.60,96.4478
445.70,96.4417
445.80,96.4447
445.90,96.4462
446.00,96.4493
446.10,96.4600
446.20,96.4630
446.30,96.4691
446.40,96.4783
446.50,96.4890
446.60,96.4966
446.70,96.4951
446.80,96.4996
446.90,96.5073
447.00,96.5118
447.10,96.5164
447.20,96.5256
447.30,96.5347
447.40,96.5408
447.50,96.5454
447.60,96.5515
447.70,96.5500
447.80,96.5485
447.90,96.5515
448.00,96.5530
448.10,96.5515
448.20,96.5500
448.30,96.5546
448.40,96.5530
448.50,96.5530
448.60,96.5546
448.70,96.5515
448.80,96.5485
448.90,96.5515
449.00,96.5485
449.10,96.5454
449.20,96.5485
449.30,96.5515
449.40,96.5607
449.50,96.5652
449.60,96.5744
449.70,96.5820
449.80,96.5912
449.90,96.5942
450.00,96.5942
450.10,96.6003
450.20,96.6049
450.30,96.6110
450.40,96.6156
450.50,96.6248
450.60,96.6339
450.70,96.6400
450.80,96.6461
450.90,96.6492
451.00,96.6507
451.10,96.6537
451.20,96.6507
451.30,96.6568
451.40,96.6644
451.50,96.6736
451.60,96.6812
451.70,96.6873
451.80,96.6980
451.90,96.6980
452.00,96.6949
452.10,96.6934
452.20,96.6888
452.30,96.6858
452.40,96.6858
452.50,96.6919
452.60,96.6980
452.70,96.7072
452.80,96.7148
452.90,96.7163
453.00,96.7194
453.10,96.7148
453.20,96.7163
453.30,96.7133
453.40,96.7148
453.50,96.7133
453.60,96.7163
453.70,96.7209
453.80,96.7209
453.90,96.7285
454.00,96.7316
454.10,96.7392
454.20,96.7407
454.30,96.7453
454.40,96.7499
454.50,96.7575
454.60,96.7621
454.70,96.7636
454.80,96.7667
454.90,96.7697
455.00,96.7697
455.10,96.7728
455.20,96.7743
455.30,96.7758
455.40,96.7773
455.50,96.7834
455.60,96.7880
455.70,96.7865
455.80,96.7957
455.90,96.8033
456.00,96.8094
456.10,96.8094
456.20,96.8140
456.30,96.8094
456.40,96.8063
456.50,96.7987
456.60,96.7941
456.70,96.7941
456.80,96.8018
456.90,96.8140
457.00,96.8231
457.10,96.8292
457.20,96.8384
457.30,96.8414
457.40,96.8430
457.50,96.8506
457.60,96.8536
457.70,96.8582
457.80,96.8597
457.90,96.8628
458.00,96.8613
458.10,96.8674
458.20,96.8674
458.30,96.8704
458.40,96.8719
458.50,96.8704
458.60,96.8735
458.70,96.8735
458.80,96.8781
458.90,96.8842
459.00,96.8918
459.10,96.9009
459.20,96.9070
459.30,96.9101
459.40,96.9147
459.50,96.9131
459.60,96.9101
459.70,96.9101
459.80,96.9101
459.90,96.9101
460.00,96.9086
460.10,96.9147
460.20,96.9162
460.30,96.9193
460.40,96.9254
460.50,96.9315
460.60,96.9406
460.70,96.9513
460.80,96.9589
460.90,96.9650
461.00,96.9727
461.10,96.9803
461.20,96.9833
461.30,96.9818
461.40,96.9833
461.50,96.9864
461.60,96.9910
461.70,96.9910
461.80,96.9925
461.90,96.9986
462.00,97.0047
462.10,97.0001
462.20,97.0047
462.30,97.0093
462.40,97.0093
462.50,97.0139
462.60,97.0169
462.70,97.0184
462.80,97.0184
462.90,97.0230
463.00,97.0276
463.10,97.0291
463.20,97.0261
463.30,97.0215
463.40,97.0230
463.50,97.0184
463.60,97.0123
463.70,97.0139
463.80,97.0245
463.90,97.0245
464.00,97.0291
464.10,97.0322
464.20,97.0367
464.30,97.0444
464.40,97.0490
464.50,97.0566
464.60,97.0642
464.70,97.0764
464.80,97.0886
464.90,97.0993
465.00,97.1100
465.10,97.1146
465.20,97.1207
465.30,97.1222
465.40,97.1130
465.50,97.1130
465.60,97.1130
465.70,97.1161
465.80,97.1146
465.90,97.1252
466.00,97.1298
466.10,97.1313
466.20,97.1298
466.30,97.1329
466.40,97.1390
466.50,97.1436
466.60,97.1481
466.70,97.1573
466.80,97.1649
466.90,97.1649
467.00,97.1649
467.10,97.1603
467.20,97.1588
467.30,97.1527
467.40,97.1527
467.50,97.1527
467.60,97.1512
467.70,97.1512
467.80,97.1542
467.90,97.1573
468.00,97.1603
468.10,97.1634
468.20,97.1619
468.30,97.1634
468.40,97.1619
468.50,97.1619
468.60,97.1634
468.70,97.1695
468.80,97.1725
468.90,97.1802
469.00,97.1863
469.10,97.1954
469.20,97.2015
469.30,97.2015
469.40,97.2092
469.50,97.2153
469.60,97.2153
469.70,97.2168
469.80,97.2260
469.90,97.2275
470.00,97.2229
470.10,97.2214
470.20,97.2153
470.30,97.2153
470.40,97.2168
470.50,97.2244
470.60,97.2290
470.70,97.2382
470.80,97.2488
470.90,97.2610
471.00,97.2626
471.10,97.2687
471.20,97.2687
471.30,97.2656
471.40,97.2641
471.50,97.2610
471.60,97.2641
471.70,97.2687
471.80,97.2824
471.90,97.2870
472.00,97.2916
472.10,97.2931
472.20,97.2931
472.30,97.2931
472.40,97.2992
472.50,97.3099
472.60,97.3206
472.70,97.3312
472.80,97.3343
472.90,97.3373
473.00,97.3343
473.10,97.3328
473.20,97.3297
473.30,97.3328
473.40,97.3389
473.50,97.3404
473.60,97.3389
473.70,97.3373
473.80,97.3343
473.90,97.3312
474.00,97.3297
474.10,97.3389
474.20,97.3434
474.30,97.3465
474.40,97.3511
474.50,97.3572
474.60,97.3633
474.70,97.3633
474.80,97.3618
474.90,97.3618
475.00,97.3679
475.10,97.3694
475.20,97.3740
475.30,97.3816
475.40,97.3907
475.50,97.3969
475.60,97.4045
475.70,97.4121
475.80,97.4274
475.90,97.4350
476.00,97.4411
476.10,97.4457
476.20,97.4457
476.30,97.4442
476.40,97.4396
476.50,97.4487
476.60,97.4548
476.70,97.4548
476.80,97.4625
476.90,97.4686
477.00,97.4701
477.10,97.4640
477.20,97.4625
477.30,97.4518
477.40,97.4442
477.50,97.4426
477.60,97.4396
477.70,97.4350
477.80,97.4365
477.90,97.4442
478.00,97.4487
478.10,97.4548
478.20,97.4655
478.30,97.4777
478.40,97.4869
478.50,97.4960
478.60,97.5021
478.70,97.5021
478.80,97.5021
478.90,97.5067
479.00,97.5067
479.10,97.5052
479.20,97.5037
479.30,97.5052
479.40,97.5021
479.50,97.5021
479.60,97.4991
479.70,97.4976
479.80,97.5037
479.90,97.5052
480.00,97.5067
480.10,97.5082
480.20,97.5128
480.30,97.5143
480.40,97.5143
480.50,97.5174
480.60,97.5220
480.70,97.5220
480.80,97.5266
480.90,97.5327
481.00,97.5357
481.10,97.5433
481.20,97.5540
481.30,97.5555
481.40,97.5586
481.50,97.5601
481.60,97.5616
481.70,97.5571
481.80,97.5616
481.90,97.5693
482.00,97.5739
482.10,97.5739
482.20,97.5784
482.30,97.5845
482.40,97.5861
482.50,97.5830
482.60,97.5861
482.70,97.5891
482.80,97.5891
482.90,97.5891
483.00,97.5922
483.10,97.5952
483.20,97.5937
483.30,97.5922
483.40,97.5906
483.50,97.5906
483.60,97.5922
483.70,97.5906
483.80,97.5983
483.90,97.6044
484.00,97.6135
484.10,97.6227
484.20,97.6318
484.30,97.6364
484.40,97.6410
484.50,97.6440
484.60,97.6471
484.70,97.6517
484.80,97.6593
484.90,97.6608
485.00,97.6624
485.10,97.6624
485.20,97.6608
485.30,97.6593
485.40,97.6624
485.50,97.6654
485.60,97.6669
485.70,97.6685
485.80,97.6730
485.90,97.6746
486.00,97.6776
486.10,97.6776
486.20,97.6791
486.30,97.6852
486.40,97.6883
486.50,97.6944
486.60,97.6974
486.70,97.7005
486.80,97.7005
486.90,97.6959
487.00,97.6974
487.10,97.6990
487.20,97.7051
487.30,97.7036
487.40,97.7066
487.50,97.7127
487.60,97.7097
487.70,97.7112
487.80,97.7112
487.90,97.7249
488.00,97.7264
488.10,97.7310
488.20,97.7356
488.30,97.7386
488.40,97.7432
488.50,97.7463
488.60,97.7478
488.70,97.7478
488.80,97.7478
488.90,97.7478
489.00,97.7478
489.10,97.7463
489.20,97.7448
489.30,97.7478
489.40,97.7478
489.50,97.7524
489.60,97.7570
489.70,97.7631
489.80,97.7692
489.90,97.7722
490.00,97.7722
490.10,97.7737
490.20,97.7737
490.30,97.7722
490.40,97.7722
490.50,97.7783
490.60,97.7814
490.70,97.7844
490.80,97.7921
490.90,97.7966
491.00,97.8027
491.10,97.7997
491.20,97.8012
491.30,97.7997
491.40,97.7982
491.50,97.7982
491.60,97.8027
491.70,97.8088
491.80,97.8165
491.90,97.8226
492.00,97.8271
492.10,97.8271
492.20,97.8302
492.30,97.8271
492.40,97.8271
492.50,97.8271
492.60,97.8287
492.70,97.8271
492.80,97.8302
492.90,97.8302
493.00,97.8287
493.10,97.8287
493.20,97.8256
493.30,97.8287
493.40,97.8287
493.50,97.8348
493.60,97.8378
493.70,97.8485
493.80,97.8592
493.90,97.8653
494.00,97.8683
494.10,97.8683
494.20,97.8699
494.30,97.8699
494.40,97.8714
494.50,97.8729
494.60,97.8775
494.70,97.8806
494.80,97.8790
494.90,97.8806
495.00,97.8836
495.10,97.8851
495.20,97.8897
495.30,97.8928
495.40,97.8943
495.50,97.8943
495.60,97.8973
495.70,97.9034
495.80,97.9050
495.90,97.9095
496.00,97.9156
496.10,97.9126
496.20,97.9172
496.30,97.9172
496.40,97.9233
496.50,97.9294
496.60,97.9355
496.70,97.9462
496.80,97.9477
496.90,97.9523
497.00,97.9538
497.10,97.9614
497.20,97.9645
497.30,97.9706
497.40,97.9767
497.50,97.9767
497.60,97.9813
497.70,97.9782
497.80,97.9767
497.90,97.9767
498.00,97.9843
498.10,97.9889
498.20,97.9874
498.30,97.9858
498.40,97.9843
498.50,97.9782
498.60,97.9706
498.70,97.9691
498.80,97.9706
498.90,97.9706
499.00,97.9752
499.10,97.9782
499.20,97.9843
499.30,97.9843
499.40,97.9828
499.50,97.9889
499.60,97.9889
499.70,97.9904
499.80,97.9935
499.90,97.9980
500.00,98.0026
500.10,98.0042
500.20,98.0103
500.30,98.0148
500.40,98.0103
500.50,98.0133
500.60,98.0133
500.70,98.0133
500.80,98.0103
500.90,98.0087
501.00,98.0087
501.10,98.0118
501.20,98.0103
501.30,98.0087
501.40,98.0103
501.50,98.0179
501.60,98.0209
501.70,98.0209
501.80,98.0301
501.90,98.0331
502.00,98.0347
502.10,98.0331
502.20,98.0408
502.30,98.0438
502.40,98.0438
502.50,98.0515
502.60,98.0560
502.70,98.0530
502.80,98.0484
502.90,98.0530
503.00,98.0515
503.10,98.0560
503.20,98.0637
503.30,98.0743
503.40,98.0774
503.50,98.0743
503.60,98.0759
503.70,98.0759
503.80,98.0743
503.90,98.0804
504.00,98.0850
504.10,98.0881
504.20,98.0896
504.30,98.0881
504.40,98.0820
504.50,98.0835
504.60,98.0804
504.70,98.0804
504.80,98.0865
504.90,98.0927
505.00,98.0957
505.10,98.0957
505.20,98.1003
505.30,98.1003
505.40,98.1003
505.50,98.1003
505.60,98.0988
505.70,98.0988
505.80,98.1003
505.90,98.1003
506.00,98.1033
506.10,98.1049
506.20,98.1064
506.30,98.1033
506.40,98.1018
506.50,98.0988
506.60,98.0942
506.70,98.0927
506.80,98.0896
506.90,98.0911
507.00,98.0988
507.10,98.1079
507.20,98.1110
507.30,98.1186
507.40,98.1201
507.50,98.1293
507.60,98.1293
507.70,98.1277
507.80,98.1277
507.90,98.1262
508.00,98.1277
508.10,98.1262
508.20,98.1339
508.30,98.1415
508.40,98.1522
508.50,98.1552
508.60,98.1567
508.70,98.1567
508.80,98.1552
508.90,98.1567
509.00,98.1598
509.10,98.1583
509.20,98.1598
509.30,98.1598
509.40,98.1567
509.50,98.1552
509.60,98.1628
509.70,98.1674
509.80,98.1750
509.90,98.1781
510.00,98.1842
510.10,98.1857
510.20,98.1888
510.30,98.1903
510.40,98.1918
510.50,98.1949
510.60,98.1995
510.70,98.1964
510.80,98.1979
510.90,98.2010
511.00,98.1995
511.10,98.2040
511.20,98.2071
511.30,98.2117
511.40,98.2147
511.50,98.2162
511.60,98.2208
511.70,98.2254
511.80,98.2254
511.90,98.2254
512.00,98.2285
512.10,98.2315
512.20,98.2269
512.30,98.2269
512.40,98.2208
512.50,98.2193
512.60,98.2132
512.70,98.2117
512.80,98.2132
512.90,98.2117
513.00,98.2147
513.10,98.2147
513.20,98.2178
513.30,98.2162
513.40,98.2147
513.50,98.2162
513.60,98.2239
513.70,98.2285
513.80,98.2330
513.90,98.2391
514.00,98.2452
514.10,98.2452
514.20,98.2407
514.30,98.2376
514.40,98.2376
514.50,98.2346
514.60,98.2361
514.70,98.2407
514.80,98.2483
514.90,98.2498
515.00,98.2590
515.10,98.2651
515.20,98.2651
515.30,98.2666
515.40,98.2620
515.50,98.2590
515.60,98.2498
515.70,98.2483
515.80,98.2468
515.90,98.2483
516.00,98.2513
516.10,98.2574
516.20,98.2666
516.30,98.2697
516.40,98.2742
516.50,98.2742
516.60,98.2758
516.70,98.2758
516.80,98.2727
516.90,98.2712
517.00,98.2758
517.10,98.2834
517.20,98.2895
517.30,98.2971
517.40,98.3063
517.50,98.3124
517.60,98.3170
517.70,98.3215
517.80,98.3215
517.90,98.3246
518.00,98.3276
518.10,98.3231
518.20,98.3215
518.30,98.3215
518.40,98.3200
518.50,98.3200
518.60,98.3215
518.70,98.3215
518.80,98.3185
518.90,98.3215
519.00,98.3200
519.10,98.3200
519.20,98.3170
519.30,98.3185
519.40,98.3185
519.50,98.3170
519.60,98.3185
519.70,98.3246
519.80,98.3292
519.90,98.3307
520.00,98.3322
520.10,98.3307
520.20,98.3292
520.30,98.3322
520.40,98.3383
520.50,98.3383
520.60,98.3414
520.70,98.3505
520.80,98.3551
520.90,98.3597
521.00,98.3688
521.10,98.3704
521.20,98.3704
521.30,98.3704
521.40,98.3704
521.50,98.3658
521.60,98.3688
521.70,98.3749
521.80,98.3780
521.90,98.3826
522.00,98.3856
522.10,98.3841
522.20,98.3841
522.30,98.3856
522.40,98.3856
522.50,98.3841
522.60,98.3810
522.70,98.3810
522.80,98.3795
522.90,98.3810
523.00,98.3795
523.10,98.3795
523.20,98.3765
523.30,98.3719
523.40,98.3673
523.50,98.3658
523.60,98.3673
523.70,98.3719
523.80,98.3795
523.90,98.3841
524.00,98.3902
524.10,98.3978
524.20,98.4024
524.30,98.4039
524.40,98.4085
524.50,98.4146
524.60,98.4146
524.70,98.4116
524.80,98.4131
524.90,98.4131
525.00,98.4070
525.10,98.4055
525.20,98.4055
525.30,98.4055
525.40,98.4085
525.50,98.4085
525.60,98.4116
525.70,98.4131
525.80,98.4146
525.90,98.4146
526.00,98.4161
526.10,98.4238
526.20,98.4268
526.30,98.4268
526.40,98.4299
526.50,98.4314
526.60,98.4375
526.70,98.4344
526.80,98.4344
526.90,98.4436
527.00,98.4482
527.10,98.4451
527.20,98.4451
527.30,98.4482
527.40,98.4482
527.50,98.4421
527.60,98.4451
527.70,98.4497
527.80,98.4482
527.90,98.4512
528.00,98.4482
528.10,98.4497
528.20,98.4482
528.30,98.4482
528.40,98.4436
528.50,98.4497
528.60,98.4619
528.70,98.4665
528.80,98.4695
528.90,98.4711
529.00,98.4772
529.10,98.4802
529.20,98.4756
529.30,98.4741
529.40,98.4787
529.50,98.4833
529.60,98.4772
529.70,98.4756
529.80,98.4741
529.90,98.4711
530.00,98.4711
530.10,98.4772
530.20,98.4772
530.30,98.4787
530.40,98.4833
530.50,98.4879
530.60,98.4879
530.70,98.4848
530.80,98.4879
530.90,98.4909
531.00,98.4879
531.10,98.4894
531.20,98.4909
531.30,98.4940
531.40,98.4955
531.50,98.4970
531.60,98.4940
531.70,98.4924
531.80,98.4924
531.90,98.4955
532.00,98.4970
532.10,98.5016
532.20,98.5031
532.30,98.5077
532.40,98.5092
532.50,98.5077
532.60,98.5016
532.70,98.5031
532.80,98.5031
532.90,98.4985
533.00,98.5016
533.10,98.5031
533.20,98.5077
533.30,98.5092
533.40,98.5107
533.50,98.5092
533.60,98.5092
533.70,98.5092
533.80,98.5092
533.90,98.5123
534.00,98.5153
534.10,98.5153
534.20,98.5184
534.30,98.5184
534.40,98.5184
534.50,98.5168
534.60,98.5199
534.70,98.5168
534.80,98.5153
534.90,98.5138
535.00,98.5123
535.10,98.5184
535.20,98.5260
535.30,98.5382
535.40,98.5519
535.50,98.5626
535.60,98.5718
535.70,98.5733
535.80,98.5718
535.90,98.5733
536.00,98.5794
536.10,98.5794
536.20,98.5733
536.30,98.5840
536.40,98.5779
536.50,98.5733
536.60,98.5641
536.70,98.5550
536.80,98.5474
536.90,98.5382
537.00,98.5245
537.10,98.5138
537.20,98.5077
537.30,98.5062
537.40,98.5046
537.50,98.5077
537.60,98.5123
537.70,98.5168
537.80,98.5199
537.90,98.5214
538.00,98.5184
538.10,98.5168
538.20,98.5199
538.30,98.5214
538.40,98.5260
538.50,98.5321
538.60,98.5352
538.70,98.5352
538.80,98.5306
538.90,98.5291
539.00,98.5291
539.10,98.5336
539.20,98.5367
539.30,98.5413
539.40,98.5474
539.50,98.5504
539.60,98.5474
539.70,98.5458
539.80,98.5474
539.90,98.5489
540.00,98.5474
540.10,98.5474
540.20,98.5458
540.30,98.5458
540.40,98.5504
540.50,98.5519
540.60,98.5519
540.70,98.5535
540.80,98.5535
540.90,98.5504
541.00,98.5504
541.10,98.5535
541.20,98.5565
541.30,98.5596
541.40,98.5641
541.50,98.5687
541.60,98.5672
541.70,98.5657
541.80,98.5657
541.90,98.5641
542.00,98.5657
542.10,98.5687
542.20,98.5764
542.30,98.5825
542.40,98.5886
542.50,98.5947
542.60,98.5977
542.70,98.6023
542.80,98.6023
542.90,98.6023
543.00,98.6069
543.10,98.6130
543.20,98.6160
543.30,98.6145
543.40,98.6176
543.50,98.6160
543.60,98.6145
543.70,98.6115
543.80,98.6115
543.90,98.6084
544.00,98.6069
544.10,98.6023
544.20,98.5992
544.30,98.5931
544.40,98.5886
544.50,98.5947
544.60,98.5992
544.70,98.6023
544.80,98.6084
544.90,98.6176
545.00,98.6206
545.10,98.6221
545.20,98.6237
545.30,98.6221
545.40,98.6221
545.50,98.6206
545.60,98.6221
545.70,98.6237
545.80,98.6252
545.90,98.6298
546.00,98.6298
546.10,98.6328
546.20,98.6343
546.30,98.6328
546.40,98.6313
546.50,98.6298
546.60,98.6328
546.70,98.6328
546.80,98.6343
546.90,98.6343
547.00,98.6328
547.10,98.6343
547.20,98.6359
547.30,98.6343
547.40,98.6359
547.50,98.6420
547.60,98.6450
547.70,98.6465
547.80,98.6496
547.90,98.6572
548.00,98.6618
548.10,98.6618
548.20,98.6603
548.30,98.6603
548.40,98.6557
548.50,98.6496
548.60,98.6481
548.70,98.6526
548.80,98.6542
548.90,98.6542
549.00,98.6496
549.10,98.6481
549.20,98.6450
549.30,98.6389
549.40,98.6374
549.50,98.6389
549.60,98.6420
549.70,98.6374
549.80,98.6328
549.90,98.6267
550.00,98.6206
550.10,98.6160
550.20,98.6130
550.30,98.6176
550.40,98.6221
550.50,98.6237
550.60,98.6252
550.70,98.6221
550.80,98.6191
550.90,98.6176
551.00,98.6221
551.10,98.6267
551.20,98.6313
551.30,98.6374
551.40,98.6420
551.50,98.6435
551.60,98.6435
551.70,98.6481
551.80,98.6526
551.90,98.6572
552.00,98.6633
552.10,98.6649
552.20,98.6649
552.30,98.6710
552.40,98.6771
552.50,98.6786
552.60,98.6847
552.70,98.6923
552.80,98.6954
552.90,98.6954
553.00,98.6984
553.10,98.6954
553.20,98.6893
553.30,98.6847
553.40,98.6801
553.50,98.6725
553.60,98.6649
553.70,98.6618
553.80,98.6572
553.90,98.6526
554.00,98.6511
554.10,98.6496
554.20,98.6496
554.30,98.6557
554.40,98.6618
554.50,98.6710
554.60,98.6771
554.70,98.6847
554.80,98.6877
554.90,98.6923
555.00,98.6938
555.10,98.6923
555.20,98.6923
555.30,98.6969
555.40,98.6984
555.50,98.6938
555.60,98.6893
555.70,98.6893
555.80,98.6923
555.90,98.6893
556.00,98.6923
556.10,98.7000
556.20,98.7000
556.30,98.6984
556.40,98.7045
556.50,98.7091
556.60,98.7137
556.70,98.7198
556.80,98.7198
556.90,98.7213
557.00,98.7183
557.10,98.7122
557.20,98.7076
557.30,98.7122
557.40,98.7167
557.50,98.7183
557.60,98.7198
557.70,98.7198
557.80,98.7137
557.90,98.7061
558.00,98.7000
558.10,98.6969
558.20,98.6984
558.30,98.7015
558.40,98.7030
558.50,98.7045
558.60,98.7076
558.70,98.7045
558.80,98.7061
558.90,98.7061
559.00,98.7091
559.10,98.7167
559.20,98.7213
559.30,98.7259
559.40,98.7289
559.50,98.7350
559.60,98.7350
559.70,98.7335
559.80,98.7320
559.90,98.7350
560.00,98.7366
560.10,98.7396
560.20,98.7473
560.30,98.7534
560.40,98.7595
560.50,98.7625
560.60,98.7640
560.70,98.7671
560.80,98.7640
560.90,98.7701
561.00,98.7701
561.10,98.7747
561.20,98.7762
561.30,98.7762
561.40,98.7717
561.50,98.7656
561.60,98.7610
561.70,98.7549
561.80,98.7503
561.90,98.7503
562.00,98.7488
562.10,98.7473
562.20,98.7503
562.30,98.7488
562.40,98.7488
562.50,98.7518
562.60,98.7564
562.70,98.7579
562.80,98.7595
562.90,98.7610
563.00,98.7595
563.10,98.7595
563.20,98.7579
563.30,98.7549
563.40,98.7518
563.50,98.7518
563.60,98.7549
563.70,98.7534
563.80,98.7549
563.90,98.7534
564.00,98.7518
564.10,98.7473
564.20,98.7457
564.30,98.7457
564.40,98.7488
564.50,98.7488
564.60,98.7503
564.70,98.7457
564.80,98.7442
564.90,98.7411
565.00,98.7427
565.10,98.7411
565.20,98.7427
565.30,98.7488
565.40,98.7518
565.50,98.7579
565.60,98.7610
565.70,98.7656
565.80,98.7671
565.90,98.7701
566.00,98.7732
566.10,98.7747
566.20,98.7793
566.30,98.7869
566.40,98.7900
566.50,98.7915
566.60,98.7869
566.70,98.7823
566.80,98.7808
566.90,98.7762
567.00,98.7747
567.10,98.7717
567.20,98.7717
567.30,98.7747
567.40,98.7762
567.50,98.7808
567.60,98.7839
567.70,98.7915
567.80,98.7946
567.90,98.7915
568.00,98.7885
568.10,98.7839
568.20,98.7839
568.30,98.7854
568.40,98.7869
568.50,98.7885
568.60,98.7976
568.70,98.7991
568.80,98.8007
568.90,98.8007
569.00,98.8083
569.10,98.8129
569.20,98.8098
569.30,98.8068
569.40,98.8068
569.50,98.8022
569.60,98.7930
569.70,98.7930
569.80,98.7930
569.90,98.7930
570.00,98.7900
570.10,98.7900
570.20,98.7900
570.30,98.7854
570.40,98.7854
570.50,98.7885
570.60,98.7915
570.70,98.7946
570.80,98.7961
570.90,98.7976
571.00,98.7991
571.10,98.7991
571.20,98.7991
571.30,98.7991
571.40,98.8037
571.50,98.8098
571.60,98.8098
571.70,98.8083
571.80,98.8052
571.90,98.8037
572.00,98.7991
572.10,98.7976
572.20,98.7976
572.30,98.8052
572.40,98.8098
572.50,98.8068
572.60,98.8068
572.70,98.8129
572.80,98.8144
572.90,98.8098
573.00,98.8098
573.10,98.8098
573.20,98.8052
573.30,98.7991
573.40,98.7961
573.50,98.7885
573.60,98.7823
573.70,98.7808
573.80,98.7839
573.90,98.7854
574.00,98.7915
574.10,98.8007
574.20,98.8083
574.30,98.8113
574.40,98.8129
574.50,98.8174
574.60,98.8235
574.70,98.8266
574.80,98.8281
574.90,98.8327
575.00,98.8342
575.10,98.8358
575.20,98.8342
575.30,98.8373
575.40,98.8403
575.50,98.8449
575.60,98.8525
575.70,98.8571
575.80,98.8586
575.90,98.8571
576.00,98.8541
576.10,98.8495
576.20,98.8373
576.30,98.8327
576.40,98.8312
576.50,98.8251
576.60,98.8220
576.70,98.8174
576.80,98.8144
576.90,98.8113
577.00,98.8113
577.10,98.8129
577.20,98.8113
577.30,98.8129
577.40,98.8129
577.50,98.8159
577.60,98.8144
577.70,98.8159
577.80,98.8266
577.90,98.8297
578.00,98.8327
578.10,98.8358
578.20,98.8388
578.30,98.8327
578.40,98.8312
578.50,98.8312
578.60,98.8312
578.70,98.8312
578.80,98.8342
578.90,98.8358
579.00,98.8388
579.10,98.8434
579.20,98.8464
579.30,98.8480
579.40,98.8510
579.50,98.8556
579.60,98.8556
579.70,98.8541
579.80,98.8586
579.90,98.8571
580.00,98.8556
580.10,98.8571
580.20,98.8602
580.30,98.8586
580.40,98.8632
580.50,98.8663
580.60,98.8663
580.70,98.8647
580.80,98.8617
580.90,98.8632
581.00,98.8556
581.10,98.8510
581.20,98.8541
581.30,98.8541
581.40,98.8510
581.50,98.8464
581.60,98.8525
581.70,98.8525
581.80,98.8480
581.90,98.8434
582.00,98.8403
582.10,98.8388
582.20,98.8327
582.30,98.8327
582.40,98.8373
582.50,98.8419
582.60,98.8464
582.70,98.8510
582.80,98.8602
582.90,98.8617
583.00,98.8663
583.10,98.8678
583.20,98.8678
583.30,98.8724
583.40,98.8739
583.50,98.8800
583.60,98.8815
583.70,98.8876
583.80,98.8876
583.90,98.8907
584.00,98.8922
584.10,98.8953
584.20,98.8983
584.30,98.8998
584.40,98.8953
584.50,98.8922
584.60,98.8861
584.70,98.8800
584.80,98.8754
584.90,98.8739
585.00,98.8724
585.10,98.8708
585.20,98.8708
585.30,98.8708
585.40,98.8647
585.50,98.8617
585.60,98.8617
585.70,98.8541
585.80,98.8495
585.90,98.8449
586.00,98.8480
586.10,98.8464
586.20,98.8464
586.30,98.8480
586.40,98.8541
586.50,98.8571
586.60,98.8571
586.70,98.8632
586.80,98.8663
586.90,98.8647
587.00,98.8678
587.10,98.8708
587.20,98.8739
587.30,98.8754
587.40,98.8800
587.50,98.8846
587.60,98.8907
587.70,98.8968
587.80,98.9014
587.90,98.9059
588.00,98.9105
588.10,98.9151
588.20,98.9197
588.30,98.9227
588.40,98.9258
588.50,98.9258
588.60,98.9243
588.70,98.9243
588.80,98.9212
588.90,98.9166
589.00,98.9166
589.10,98.9166
589.20,98.9166
589.30,98.9166
589.40,98.9182
589.50,98.9182
589.60,98.9166
589.70,98.9151
589.80,98.9105
589.90,98.9059
590.00,98.9014
590.10,98.9029
590.20,98.9029
590.30,98.9059
590.40,98.9075
590.50,98.9090
590.60,98.9059
590.70,98.9105
590.80,98.9090
590.90,98.9090
591.00,98.9105
591.10,98.9105
591.20,98.9090
591.30,98.9075
591.40,98.9090
591.50,98.9105
591.60,98.9151
591.70,98.9182
591.80,98.9182
591.90,98.9182
592.00,98.9151
592.10,98.9105
592.20,98.9105
592.30,98.9120
592.40,98.9136
592.50,98.9166
592.60,98.9258
592.70,98.9258
592.80,98.9243
592.90,98.9227
593.00,98.9243
593.10,98.9227
593.20,98.9212
593.30,98.9243
593.40,98.9243
593.50,98.9243
593.60,98.9227
593.70,98.9212
593.80,98.9197
593.90,98.9136
594.00,98.9105
594.10,98.9090
594.20,98.9105
594.30,98.9136
594.40,98.9227
594.50,98.9319
594.60,98.9365
594.70,98.9365
594.80,98.9349
594.90,98.9365
595.00,98.9395
595.10,98.9471
595.20,98.9517
595.30,98.9563
595.40,98.9609
595.50,98.9594
595.60,98.9563
595.70,98.9532
595.80,98.9548
595.90,98.9594
596.00,98.9609
596.10,98.9639
596.20,98.9639
596.30,98.9670
596.40,98.9594
596.50,98.9548
596.60,98.9532
596.70,98.9532
596.80,98.9548
596.90,98.9594
597.00,98.9624
597.10,98.9655
597.20,98.9670
597.30,98.9655
597.40,98.9609
597.50,98.9639
597.60,98.9624
597.70,98.9624
597.80,98.9624
597.90,98.9639
598.00,98.9655
598.10,98.9639
598.20,98.9655
598.30,98.9670
598.40,98.9670
598.50,98.9639
598.60,98.9594
598.70,98.9624
598.80,98.9594
598.90,98.9594
599.00,98.9609
599.10,98.9609
599.20,98.9609
599.30,98.9563
599.40,98.9487
599.50,98.9410
599.60,98.9395
599.70,98.9456
599.80,98.9487
599.90,98.9532
600.00,98.9609
600.10,98.9655
600.20,98.9655
600.30,98.9655
600.40,98.9685
600.50,98.9777
600.60,98.9822
600.70,98.9899
600.80,98.9914
600.90,98.9929
601.00,98.9960
601.10,99.0005
601.20,99.0036
601.30,99.0036
601.40,99.0051
601.50,99.0036
601.60,98.9990
601.70,98.9944
601.80,98.9899
601.90,98.9868
602.00,98.9868
602.10,98.9853
602.20,98.9868
602.30,98.9868
602.40,98.9914
602.50,98.9960
602.60,98.9960
602.70,98.9944
602.80,98.9975
602.90,98.9960
603.00,98.9929
603.10,98.9914
603.20,98.9929
603.30,98.9914
603.40,98.9883
603.50,98.9899
603.60,98.9944
603.70,98.9960
603.80,98.9990
603.90,99.0005
604.00,99.0036
604.10,99.0005
604.20,99.0005
604.30,98.9990
604.40,98.9929
604.50,98.9883
604.60,98.9914
604.70,98.9944
604.80,98.9975
604.90,99.0036
605.00,99.0067
605.10,99.0112
605.20,99.0128
605.30,99.0128
605.40,99.0082
605.50,99.0051
605.60,99.0005
605.70,98.9914
605.80,98.9914
605.90,98.9914
606.00,98.9975
606.10,98.9990
606.20,99.0097
606.30,99.0143
606.40,99.0143
606.50,99.0112
606.60,99.0128
606.70,99.0128
606.80,99.0112
606.90,99.0112
607.00,99.0143
607.10,99.0158
607.20,99.0158
607.30,99.0128
607.40,99.0051
607.50,98.9990
607.60,98.9944
607.70,98.9899
607.80,98.9822
607.90,98.9853
608.00,98.9868
608.10,98.9899
608.20,98.9899
608.30,98.9944
608.40,98.9975
608.50,98.9975
608.60,99.0021
608.70,99.0036
608.80,99.0082
608.90,99.0128
609.00,99.0189
609.10,99.0234
609.20,99.0311
609.30,99.0341
609.40,99.0341
609.50,99.0326
609.60,99.0295
609.70,99.0250
609.80,99.0234
609.90,99.0280
610.00,99.0326
610.10,99.0341
610.20,99.0387
610.30,99.0402
610.40,99.0356
610.50,99.0295
610.60,99.0250
610.70,99.0189
610.80,99.0143
610.90,99.0097
611.00,99.0097
611.10,99.0112
611.20,99.0143
611.30,99.0173
611.40,99.0158
611.50,99.0189
611.60,99.0219
611.70,99.0250
611.80,99.0295
611.90,99.0295
612.00,99.0295
612.10,99.0280
612.20,99.0341
612.30,99.0326
612.40,99.0341
612.50,99.0341
612.60,99.0387
612.70,99.0356
612.80,99.0326
612.90,99.0341
613.00,99.0326
613.10,99.0295
613.20,99.0295
613.30,99.0311
613.40,99.0250
613.50,99.0189
613.60,99.0173
613.70,99.0189
613.80,99.0173
613.90,99.0158
614.00,99.0128
614.10,99.0143
614.20,99.0173
614.30,99.0189
614.40,99.0189
614.50,99.0234
614.60,99.0189
614.70,99.0082
614.80,99.0005
614.90,98.9883
615.00,98.9822
615.10,98.9807
615.20,98.9853
615.30,98.9883
615.40,98.9975
615.50,99.0005
615.60,99.0036
615.70,99.0082
615.80,99.0097
615.90,99.0067
616.00,99.0097
616.10,99.0158
616.20,99.0189
616.30,99.0204
616.40,99.0234
616.50,99.0234
616.60,99.0204
616.70,99.0204
616.80,99.0158
616.90,99.0158
617.00,99.0189
617.10,99.0219
617.20,99.0295
617.30,99.0326
617.40,99.0341
617.50,99.0341
617.60,99.0311
617.70,99.0311
617.80,99.0295
617.90,99.0280
618.00,99.0234
618.10,99.0234
618.20,99.0219
618.30,99.0189
618.40,99.0143
618.50,99.0143
618.60,99.0128
618.70,99.0097
618.80,99.0082
618.90,99.0128
619.00,99.0112
619.10,99.0128
619.20,99.0158
619.30,99.0158
619.40,99.0173
619.50,99.0158
619.60,99.0173
619.70,99.0158
619.80,99.0143
619.90,99.0112
620.00,99.0112
620.10,99.0082
620.20,99.0082
620.30,99.0067
620.40,99.0051
620.50,99.0067
620.60,99.0082
620.70,99.0143
620.80,99.0143
620.90,99.0173
621.00,99.0158
621.10,99.0158
621.20,99.0128
621.30,99.0158
621.40,99.0158
621.50,99.0189
621.60,99.0204
621.70,99.0219
621.80,99.0204
621.90,99.0204
622.00,99.0189
622.10,99.0173
622.20,99.0128
622.30,99.0143
622.40,99.0158
622.50,99.0128
622.60,99.0158
622.70,99.0158
622.80,99.0143
622.90,99.0128
623.00,99.0082
623.10,99.0082
623.20,99.0097
623.30,99.0143
623.40,99.0173
623.50,99.0219
623.60,99.0265
623.70,99.0311
623.80,99.0311
623.90,99.0295
624.00,99.0326
624.10,99.0311
624.20,99.0311
624.30,99.0265
624.40,99.0265
624.50,99.0234
624.60,99.0219
624.70,99.0204
624.80,99.0143
624.90,99.0143
625.00,99.0112
625.10,99.0067
625.20,99.0036
625.30,99.0051
625.40,99.0036
625.50,99.0036
625.60,99.0036
625.70,99.0021
625.80,99.0021
625.90,99.0021
626.00,99.0036
626.10,99.0067
626.20,99.0097
626.30,99.0112
626.40,99.0082
626.50,99.0128
626.60,99.0143
626.70,99.0112
626.80,99.0112
626.90,99.0158
627.00,99.0173
627.10,99.0189
627.20,99.0234
627.30,99.0265
627.40,99.0265
627.50,99.0234
627.60,99.0219
627.70,99.0204
627.80,99.0204
627.90,99.0234
628.00,99.0341
628.10,99.0387
628.20,99.0356
628.30,99.0265
628.40,99.0219
628.50,99.0173
628.60,99.0128
628.70,99.0112
628.80,99.0158
628.90,99.0204
629.00,99.0234
629.10,99.0219
629.20,99.0234
629.30,99.0219
629.40,99.0158
629.50,99.0097
629.60,99.0036
629.70,98.9975
629.80,98.9960
629.90,99.0005
630.00,99.0051
630.10,99.0067
630.20,99.0097
630.30,99.0097
630.40,99.0082
630.50,99.0082
630.60,99.0051
630.70,99.0036
630.80,99.0051
630.90,99.0051
631.00,99.0097
631.10,99.0158
631.20,99.0234
631.30,99.0280
631.40,99.0295
631.50,99.0341
631.60,99.0341
631.70,99.0356
631.80,99.0326
631.90,99.0341
632.00,99.0326
632.10,99.0295
632.20,99.0250
632.30,99.0250
632.40,99.0204
632.50,99.0189
632.60,99.0158
632.70,99.0158
632.80,99.0128
632.90,99.0097
633.00,99.0143
633.10,99.0173
633.20,99.0158
633.30,99.0234
633.40,99.0295
633.50,99.0356
633.60,99.0402
633.70,99.0433
633.80,99.0479
633.90,99.0524
634.00,99.0555
634.10,99.0555
634.20,99.0616
634.30,99.0585
634.40,99.0570
634.50,99.0509
634.60,99.0509
634.70,99.0463
634.80,99.0433
634.90,99.0417
635.00,99.0433
635.10,99.0417
635.20,99.0402
635.30,99.0402
635.40,99.0448
635.50,99.0463
635.60,99.0433
635.70,99.0417
635.80,99.0417
635.90,99.0417
636.00,99.0387
636.10,99.0417
636.20,99.0494
636.30,99.0540
636.40,99.0601
636.50,99.0631
636.60,99.0692
636.70,99.0677
636.80,99.0631
636.90,99.0601
637.00,99.0494
637.10,99.0463
637.20,99.0448
637.30,99.0479
637.40,99.0509
637.50,99.0509
637.60,99.0540
637.70,99.0524
637.80,99.0479
637.90,99.0494
638.00,99.0540
638.10,99.0540
638.20,99.0555
638.30,99.0540
638.40,99.0524
638.50,99.0463
638.60,99.0448
638.70,99.0479
638.80,99.0540
638.90,99.0570
639.00,99.0631
639.10,99.0677
639.20,99.0677
639.30,99.0707
639.40,99.0707
639.50,99.0738
639.60,99.0723
639.70,99.0738
639.80,99.0753
639.90,99.0768
640.00,99.0784
640.10,99.0784
640.20,99.0799
640.30,99.0799
640.40,99.0784
640.50,99.0753
640.60,99.0784
640.70,99.0784
640.80,99.0784
640.90,99.0768
641.00,99.0784
641.10,99.0738
641.20,99.0768
641.30,99.0738
641.40,99.0753
641.50,99.0723
641.60,99.0692
641.70,99.0646
641.80,99.0601
641.90,99.0601
642.00,99.0616
642.10,99.0662
642.20,99.0707
642.30,99.0723
642.40,99.0784
642.50,99.0799
642.60,99.0829
642.70,99.0845
642.80,99.0845
642.90,99.0891
643.00,99.0906
643.10,99.0906
643.20,99.0906
643.30,99.0860
643.40,99.0814
643.50,99.0692
643.60,99.0646
643.70,99.0585
643.80,99.0570
643.90,99.0601
644.00,99.0631
644.10,99.0616
644.20,99.0631
644.30,99.0631
644.40,99.0570
644.50,99.0494
644.60,99.0463
644.70,99.0402
644.80,99.0402
644.90,99.0372
645.00,99.0417
645.10,99.0433
645.20,99.0463
645.30,99.0479
645.40,99.0555
645.50,99.0616
645.60,99.0646
645.70,99.0662
645.80,99.0707
645.90,99.0707
646.00,99.0723
646.10,99.0753
646.20,99.0784
646.30,99.0784
646.40,99.0784
646.50,99.0768
646.60,99.0707
646.70,99.0646
646.80,99.0585
646.90,99.0585
647.00,99.0540
647.10,99.0509
647.20,99.0479
647.30,99.0509
647.40,99.0509
647.50,99.0509
647.60,99.0555
647.70,99.0524
647.80,99.0540
647.90,99.0570
648.00,99.0601
648.10,99.0585
648.20,99.0585
648.30,99.0585
648.40,99.0555
648.50,99.0555
648.60,99.0555
648.70,99.0540
648.80,99.0570
648.90,99.0570
649.00,99.0540
649.10,99.0540
649.20,99.0570
649.30,99.0601
649.40,99.0662
649.50,99.0692
649.60,99.0768
649.70,99.0799
649.80,99.0814
649.90,99.0860
650.00,99.0891
