"LG釭輿2 - RawData"
"Wavelength nm.","T%"
420.00,56.9901
420.10,57.0099
420.20,57.0328
420.30,57.0618
420.40,57.0877
420.50,57.1121
420.60,57.1350
420.70,57.1609
420.80,57.1869
420.90,57.2098
421.00,57.2296
421.10,57.2510
421.20,57.2769
421.30,57.2983
421.40,57.3227
421.50,57.3456
421.60,57.3730
421.70,57.3975
421.80,57.4219
421.90,57.4387
422.00,57.4615
422.10,57.4829
422.20,57.5073
422.30,57.5256
422.40,57.5470
422.50,57.5699
422.60,57.5928
422.70,57.6141
422.80,57.6416
422.90,57.6645
423.00,57.6920
423.10,57.7164
423.20,57.7393
423.30,57.7621
423.40,57.7850
423.50,57.8049
423.60,57.8278
423.70,57.8476
423.80,57.8690
423.90,57.8918
424.00,57.9102
424.10,57.9315
424.20,57.9559
424.30,57.9819
424.40,58.0017
424.50,58.0276
424.60,58.0582
424.70,58.0811
424.80,58.1070
424.90,58.1390
425.00,58.1665
425.10,58.1894
425.20,58.2108
425.30,58.2306
425.40,58.2489
425.50,58.2672
425.60,58.2855
425.70,58.3069
425.80,58.3328
425.90,58.3588
426.00,58.3786
426.10,58.4061
426.20,58.4229
426.30,58.4457
426.40,58.4656
426.50,58.4885
426.60,58.5068
426.70,58.5266
426.80,58.5526
426.90,58.5739
427.00,58.5968
427.10,58.6166
427.20,58.6380
427.30,58.6594
427.40,58.6838
427.50,58.7067
427.60,58.7311
427.70,58.7585
427.80,58.7814
427.90,58.8028
428.00,58.8242
428.10,58.8455
428.20,58.8699
428.30,58.9005
428.40,58.9355
428.50,58.9600
428.60,58.9874
428.70,59.0195
428.80,59.0378
428.90,59.0546
429.00,59.0775
429.10,59.1003
429.20,59.1187
429.30,59.1324
429.40,59.1553
429.50,59.1751
429.60,59.1965
429.70,59.2178
429.80,59.2407
429.90,59.2667
430.00,59.2865
430.10,59.3109
430.20,59.3338
430.30,59.3597
430.40,59.3826
430.50,59.4070
430.60,59.4345
430.70,59.4589
430.80,59.4788
430.90,59.5047
431.00,59.5245
431.10,59.5459
431.20,59.5657
431.30,59.5917
431.40,59.6130
431.50,59.6313
431.60,59.6527
431.70,59.6725
431.80,59.6939
431.90,59.7076
432.00,59.7305
432.10,59.7534
432.20,59.7778
432.30,59.7992
432.40,59.8190
432.50,59.8450
432.60,59.8663
432.70,59.8892
432.80,59.9106
432.90,59.9380
433.00,59.9686
433.10,59.9930
433.20,60.0189
433.30,60.0449
433.40,60.0677
433.50,60.0891
433.60,60.1059
433.70,60.1273
433.80,60.1440
433.90,60.1700
434.00,60.1944
434.10,60.2203
434.20,60.2463
434.30,60.2692
434.40,60.2905
434.50,60.3104
434.60,60.3241
434.70,60.3424
434.80,60.3622
434.90,60.3867
435.00,60.4080
435.10,60.4309
435.20,60.4523
435.30,60.4721
435.40,60.4919
435.50,60.5148
435.60,60.5347
435.70,60.5560
435.80,60.5774
435.90,60.6033
436.00,60.6247
436.10,60.6476
436.20,60.6720
436.30,60.6903
436.40,60.7117
436.50,60.7300
436.60,60.7483
436.70,60.7651
436.80,60.7849
436.90,60.8078
437.00,60.8322
437.10,60.8551
437.20,60.8780
437.30,60.8978
437.40,60.9192
437.50,60.9344
437.60,60.9497
437.70,60.9665
437.80,60.9909
437.90,61.0123
438.00,61.0321
438.10,61.0565
438.20,61.0855
438.30,61.1053
438.40,61.1267
438.50,61.1481
438.60,61.1725
438.70,61.1969
438.80,61.2213
438.90,61.2411
439.00,61.2671
439.10,61.2869
439.20,61.3098
439.30,61.3327
439.40,61.3541
439.50,61.3739
439.60,61.3907
439.70,61.4090
439.80,61.4273
439.90,61.4426
440.00,61.4594
440.10,61.4838
440.20,61.5051
440.30,61.5265
440.40,61.5463
440.50,61.5662
440.60,61.5845
440.70,61.5982
440.80,61.6196
440.90,61.6379
441.00,61.6547
441.10,61.6806
441.20,61.7035
441.30,61.7233
441.40,61.7477
441.50,61.7722
441.60,61.7966
441.70,61.8179
441.80,61.8423
441.90,61.8607
442.00,61.8790
442.10,61.8973
442.20,61.9156
442.30,61.9324
442.40,61.9522
442.50,61.9766
442.60,61.9980
442.70,62.0148
442.80,62.0361
442.90,62.0605
443.00,62.0773
443.10,62.0972
443.20,62.1140
443.30,62.1338
443.40,62.1521
443.50,62.1735
443.60,62.1948
443.70,62.2162
443.80,62.2330
443.90,62.2513
444.00,62.2681
444.10,62.2833
444.20,62.3001
444.30,62.3230
444.40,62.3505
444.50,62.3749
444.60,62.3978
444.70,62.4237
444.80,62.4466
444.90,62.4588
445.00,62.4725
445.10,62.4908
445.20,62.5061
445.30,62.5214
445.40,62.5427
445.50,62.5687
445.60,62.5900
445.70,62.6099
445.80,62.6282
445.90,62.6434
446.00,62.6617
446.10,62.6801
446.20,62.7014
446.30,62.7228
446.40,62.7457
446.50,62.7655
446.60,62.7899
446.70,62.8098
446.80,62.8296
446.90,62.8494
447.00,62.8708
447.10,62.8876
447.20,62.9059
447.30,62.9242
447.40,62.9486
447.50,62.9730
447.60,62.9929
447.70,63.0127
447.80,63.0356
447.90,63.0524
448.00,63.0661
448.10,63.0829
448.20,63.0997
448.30,63.1165
448.40,63.1302
448.50,63.1454
448.60,63.1607
448.70,63.1729
448.80,63.1866
448.90,63.2065
449.00,63.2233
449.10,63.2416
449.20,63.2629
449.30,63.2874
449.40,63.3072
449.50,63.3270
449.60,63.3545
449.70,63.3759
449.80,63.3942
449.90,63.4125
450.00,63.4323
450.10,63.4521
450.20,63.4705
450.30,63.4918
450.40,63.5117
450.50,63.5300
450.60,63.5452
450.70,63.5620
450.80,63.5773
450.90,63.5925
451.00,63.6139
451.10,63.6353
451.20,63.6505
451.30,63.6688
451.40,63.6887
451.50,63.7070
451.60,63.7207
451.70,63.7375
451.80,63.7573
451.90,63.7756
452.00,63.7909
452.10,63.8092
452.20,63.8275
452.30,63.8443
452.40,63.8596
452.50,63.8763
452.60,63.8947
452.70,63.9160
452.80,63.9374
452.90,63.9557
453.00,63.9740
453.10,63.9908
453.20,64.0045
453.30,64.0198
453.40,64.0381
453.50,64.0579
453.60,64.0762
453.70,64.0976
453.80,64.1144
453.90,64.1312
454.00,64.1449
454.10,64.1617
454.20,64.1754
454.30,64.1922
454.40,64.2120
454.50,64.2334
454.60,64.2532
454.70,64.2685
454.80,64.2868
454.90,64.3036
455.00,64.3173
455.10,64.3311
455.20,64.3494
455.30,64.3707
455.40,64.3875
455.50,64.4089
455.60,64.4287
455.70,64.4531
455.80,64.4699
455.90,64.4852
456.00,64.5020
456.10,64.5172
456.20,64.5309
456.30,64.5447
456.40,64.5630
456.50,64.5844
456.60,64.5996
456.70,64.6179
456.80,64.6378
456.90,64.6530
457.00,64.6698
457.10,64.6896
457.20,64.7049
457.30,64.7232
457.40,64.7430
457.50,64.7644
457.60,64.7842
457.70,64.8071
457.80,64.8315
457.90,64.8499
458.00,64.8666
458.10,64.8834
458.20,64.8956
458.30,64.9033
458.40,64.9170
458.50,64.9338
458.60,64.9506
458.70,64.9643
458.80,64.9841
458.90,65.0055
459.00,65.0223
459.10,65.0375
459.20,65.0543
459.30,65.0696
459.40,65.0848
459.50,65.0986
459.60,65.1138
459.70,65.1260
459.80,65.1428
459.90,65.1581
460.00,65.1703
460.10,65.1932
460.20,65.2100
460.30,65.2283
460.40,65.2466
460.50,65.2695
460.60,65.2847
460.70,65.2985
460.80,65.3198
460.90,65.3397
461.00,65.3610
461.10,65.3809
461.20,65.4022
461.30,65.4221
461.40,65.4388
461.50,65.4541
461.60,65.4724
461.70,65.4922
461.80,65.5060
461.90,65.5212
462.00,65.5426
462.10,65.5579
462.20,65.5731
462.30,65.5914
462.40,65.6113
462.50,65.6281
462.60,65.6433
462.70,65.6570
462.80,65.6708
462.90,65.6860
463.00,65.7013
463.10,65.7120
463.20,65.7242
463.30,65.7379
463.40,65.7486
463.50,65.7608
463.60,65.7730
463.70,65.7898
463.80,65.8081
463.90,65.8234
464.00,65.8417
464.10,65.8600
464.20,65.8752
464.30,65.8981
464.40,65.9180
464.50,65.9393
464.60,65.9607
464.70,65.9866
464.80,66.0065
464.90,66.0248
465.00,66.0416
465.10,66.0568
465.20,66.0721
465.30,66.0889
465.40,66.1011
465.50,66.1179
465.60,66.1316
465.70,66.1423
465.80,66.1560
465.90,66.1743
466.00,66.1865
466.10,66.2033
466.20,66.2247
466.30,66.2460
466.40,66.2643
466.50,66.2842
466.60,66.3040
466.70,66.3208
466.80,66.3361
466.90,66.3513
467.00,66.3635
467.10,66.3742
467.20,66.3864
467.30,66.3971
467.40,66.4108
467.50,66.4261
467.60,66.4398
467.70,66.4566
467.80,66.4734
467.90,66.4886
468.00,66.5039
468.10,66.5192
468.20,66.5314
468.30,66.5466
468.40,66.5588
468.50,66.5741
468.60,66.5894
468.70,66.6046
468.80,66.6214
468.90,66.6443
469.00,66.6611
469.10,66.6763
469.20,66.6916
469.30,66.7099
469.40,66.7267
469.50,66.7419
469.60,66.7603
469.70,66.7770
469.80,66.7938
469.90,66.8091
470.00,66.8228
470.10,66.8396
470.20,66.8549
470.30,66.8732
470.40,66.8869
470.50,66.9022
470.60,66.9144
470.70,66.9281
470.80,66.9388
470.90,66.9540
471.00,66.9708
471.10,66.9891
471.20,67.0013
471.30,67.0181
471.40,67.0334
471.50,67.0471
471.60,67.0624
471.70,67.0792
471.80,67.1005
471.90,67.1204
472.00,67.1402
472.10,67.1600
472.20,67.1738
472.30,67.1875
472.40,67.2028
472.50,67.2180
472.60,67.2318
472.70,67.2485
472.80,67.2653
472.90,67.2821
473.00,67.2943
473.10,67.3096
473.20,67.3264
473.30,67.3447
473.40,67.3630
473.50,67.3798
473.60,67.3935
473.70,67.4088
473.80,67.4194
473.90,67.4286
474.00,67.4408
474.10,67.4561
474.20,67.4744
474.30,67.4896
474.40,67.5034
474.50,67.5186
474.60,67.5354
474.70,67.5491
474.80,67.5659
474.90,67.5827
475.00,67.6010
475.10,67.6163
475.20,67.6346
475.30,67.6559
475.40,67.6758
475.50,67.6956
475.60,67.7185
475.70,67.7338
475.80,67.7505
475.90,67.7673
476.00,67.7856
476.10,67.8024
476.20,67.8177
476.30,67.8299
476.40,67.8391
476.50,67.8513
476.60,67.8635
476.70,67.8802
476.80,67.8970
476.90,67.9169
477.00,67.9321
477.10,67.9474
477.20,67.9611
477.30,67.9779
477.40,67.9901
477.50,68.0054
477.60,68.0176
477.70,68.0298
477.80,68.0405
477.90,68.0511
478.00,68.0634
478.10,68.0786
478.20,68.1000
478.30,68.1183
478.40,68.1351
478.50,68.1549
478.60,68.1747
478.70,68.1931
478.80,68.2068
478.90,68.2236
479.00,68.2373
479.10,68.2495
479.20,68.2587
479.30,68.2693
479.40,68.2816
479.50,68.2938
479.60,68.3060
479.70,68.3212
479.80,68.3395
479.90,68.3548
480.00,68.3701
480.10,68.3853
480.20,68.4021
480.30,68.4143
480.40,68.4235
480.50,68.4357
480.60,68.4509
480.70,68.4662
480.80,68.4830
480.90,68.5013
481.00,68.5211
481.10,68.5364
481.20,68.5547
481.30,68.5699
481.40,68.5898
481.50,68.6035
481.60,68.6172
481.70,68.6295
481.80,68.6417
481.90,68.6493
482.00,68.6615
482.10,68.6752
482.20,68.6935
482.30,68.7134
482.40,68.7347
482.50,68.7561
482.60,68.7744
482.70,68.7897
482.80,68.8080
482.90,68.8232
483.00,68.8385
483.10,68.8522
483.20,68.8644
483.30,68.8751
483.40,68.8843
483.50,68.8980
483.60,68.9102
483.70,68.9224
483.80,68.9438
483.90,68.9590
484.00,68.9743
484.10,68.9941
484.20,69.0125
484.30,69.0262
484.40,69.0384
484.50,69.0598
484.60,69.0750
484.70,69.0872
484.80,69.1025
484.90,69.1193
485.00,69.1330
485.10,69.1483
485.20,69.1666
485.30,69.1788
485.40,69.1956
485.50,69.2108
485.60,69.2215
485.70,69.2322
485.80,69.2505
485.90,69.2642
486.00,69.2810
486.10,69.2963
486.20,69.3115
486.30,69.3298
486.40,69.3466
486.50,69.3649
486.60,69.3787
486.70,69.3939
486.80,69.4107
486.90,69.4214
487.00,69.4321
487.10,69.4458
487.20,69.4595
487.30,69.4702
487.40,69.4809
487.50,69.4977
487.60,69.5099
487.70,69.5251
487.80,69.5389
487.90,69.5587
488.00,69.5755
488.10,69.5938
488.20,69.6075
488.30,69.6182
488.40,69.6320
488.50,69.6457
488.60,69.6594
488.70,69.6777
488.80,69.7006
488.90,69.7205
489.00,69.7388
489.10,69.7540
489.20,69.7693
489.30,69.7845
489.40,69.7968
489.50,69.8120
489.60,69.8257
489.70,69.8395
489.80,69.8471
489.90,69.8593
490.00,69.8746
490.10,69.8868
490.20,69.8990
490.30,69.9112
490.40,69.9265
490.50,69.9371
490.60,69.9463
490.70,69.9631
490.80,69.9814
490.90,69.9982
491.00,70.0134
491.10,70.0302
491.20,70.0455
491.30,70.0546
491.40,70.0699
491.50,70.0851
491.60,70.0989
491.70,70.1141
491.80,70.1309
491.90,70.1447
492.00,70.1599
492.10,70.1752
492.20,70.1889
492.30,70.1996
492.40,70.2118
492.50,70.2209
492.60,70.2316
492.70,70.2408
492.80,70.2560
492.90,70.2698
493.00,70.2850
493.10,70.2972
493.20,70.3110
493.30,70.3247
493.40,70.3354
493.50,70.3476
493.60,70.3613
493.70,70.3751
493.80,70.3903
493.90,70.4056
494.00,70.4239
494.10,70.4361
494.20,70.4514
494.30,70.4666
494.40,70.4773
494.50,70.4910
494.60,70.5063
494.70,70.5231
494.80,70.5383
494.90,70.5536
495.00,70.5704
495.10,70.5826
495.20,70.5978
495.30,70.6085
495.40,70.6238
495.50,70.6360
495.60,70.6497
495.70,70.6635
495.80,70.6802
495.90,70.6924
496.00,70.7077
496.10,70.7214
496.20,70.7321
496.30,70.7397
496.40,70.7596
496.50,70.7764
496.60,70.7901
496.70,70.8054
496.80,70.8267
496.90,70.8405
497.00,70.8496
497.10,70.8664
497.20,70.8786
497.30,70.8908
497.40,70.9030
497.50,70.9167
497.60,70.9290
497.70,70.9412
497.80,70.9564
497.90,70.9702
498.00,70.9854
498.10,71.0037
498.20,71.0190
498.30,71.0342
498.40,71.0480
498.50,71.0587
498.60,71.0663
498.70,71.0739
498.80,71.0815
498.90,71.0892
499.00,71.1029
499.10,71.1151
499.20,71.1288
499.30,71.1411
499.40,71.1548
499.50,71.1685
499.60,71.1761
499.70,71.1868
499.80,71.2021
499.90,71.2173
500.00,71.2296
500.10,71.2463
500.20,71.2616
500.30,71.2708
500.40,71.2784
500.50,71.2891
500.60,71.2982
500.70,71.3074
500.80,71.3196
500.90,71.3287
501.00,71.3394
501.10,71.3531
501.20,71.3623
501.30,71.3715
501.40,71.3821
501.50,71.3989
501.60,71.4142
501.70,71.4264
501.80,71.4432
501.90,71.4615
502.00,71.4752
502.10,71.4859
502.20,71.4996
502.30,71.5118
502.40,71.5210
502.50,71.5332
502.60,71.5500
502.70,71.5607
502.80,71.5698
502.90,71.5790
503.00,71.5927
503.10,71.6034
503.20,71.6141
503.30,71.6293
503.40,71.6446
503.50,71.6599
503.60,71.6751
503.70,71.6858
503.80,71.6980
503.90,71.7133
504.00,71.7239
504.10,71.7331
504.20,71.7407
504.30,71.7545
504.40,71.7621
504.50,71.7712
504.60,71.7819
504.70,71.7926
504.80,71.8033
504.90,71.8094
505.00,71.8185
505.10,71.8307
505.20,71.8430
505.30,71.8536
505.40,71.8658
505.50,71.8781
505.60,71.8872
505.70,71.8964
505.80,71.9055
505.90,71.9177
506.00,71.9299
506.10,71.9406
506.20,71.9528
506.30,71.9650
506.40,71.9772
506.50,71.9879
506.60,72.0001
506.70,72.0123
506.80,72.0215
506.90,72.0306
507.00,72.0428
507.10,72.0535
507.20,72.0657
507.30,72.0795
507.40,72.0963
507.50,72.1100
507.60,72.1237
507.70,72.1405
507.80,72.1558
507.90,72.1680
508.00,72.1832
508.10,72.1954
508.20,72.2092
508.30,72.2198
508.40,72.2290
508.50,72.2366
508.60,72.2443
508.70,72.2534
508.80,72.2610
508.90,72.2733
509.00,72.2870
509.10,72.2992
509.20,72.3145
509.30,72.3297
509.40,72.3434
509.50,72.3572
509.60,72.3724
509.70,72.3862
509.80,72.4014
509.90,72.4121
510.00,72.4213
510.10,72.4289
510.20,72.4335
510.30,72.4396
510.40,72.4487
510.50,72.4625
510.60,72.4747
510.70,72.4838
510.80,72.4960
510.90,72.5021
511.00,72.5067
511.10,72.5128
511.20,72.5189
511.30,72.5311
511.40,72.5433
511.50,72.5571
511.60,72.5708
511.70,72.5845
511.80,72.5967
511.90,72.6074
512.00,72.6196
512.10,72.6318
512.20,72.6425
512.30,72.6547
512.40,72.6608
512.50,72.6730
512.60,72.6807
512.70,72.6883
512.80,72.6974
512.90,72.7081
513.00,72.7203
513.10,72.7310
513.20,72.7432
513.30,72.7570
513.40,72.7707
513.50,72.7814
513.60,72.7966
513.70,72.8088
513.80,72.8195
513.90,72.8271
514.00,72.8394
514.10,72.8470
514.20,72.8531
514.30,72.8653
514.40,72.8806
514.50,72.8943
514.60,72.9065
514.70,72.9187
514.80,72.9309
514.90,72.9370
515.00,72.9492
515.10,72.9584
515.20,72.9660
515.30,72.9782
515.40,72.9858
515.50,72.9950
515.60,73.0011
515.70,73.0087
515.80,73.0179
515.90,73.0270
516.00,73.0377
516.10,73.0515
516.20,73.0667
516.30,73.0774
516.40,73.0896
516.50,73.1033
516.60,73.1125
516.70,73.1232
516.80,73.1354
516.90,73.1445
517.00,73.1537
517.10,73.1644
517.20,73.1766
517.30,73.1903
517.40,73.2040
517.50,73.2193
517.60,73.2376
517.70,73.2529
517.80,73.2620
517.90,73.2681
518.00,73.2742
518.10,73.2803
518.20,73.2864
518.30,73.2956
518.40,73.3047
518.50,73.3170
518.60,73.3276
518.70,73.3368
518.80,73.3444
518.90,73.3536
519.00,73.3627
519.10,73.3719
519.20,73.3826
519.30,73.3932
519.40,73.4009
519.50,73.4100
519.60,73.4222
519.70,73.4375
519.80,73.4482
519.90,73.4619
520.00,73.4756
520.10,73.4879
520.20,73.4985
520.30,73.5077
520.40,73.5168
520.50,73.5275
520.60,73.5382
520.70,73.5474
520.80,73.5565
520.90,73.5657
521.00,73.5764
521.10,73.5855
521.20,73.5947
521.30,73.6053
521.40,73.6191
521.50,73.6282
521.60,73.6404
521.70,73.6511
521.80,73.6618
521.90,73.6740
522.00,73.6832
522.10,73.6893
522.20,73.6969
522.30,73.7076
522.40,73.7137
522.50,73.7213
522.60,73.7320
522.70,73.7411
522.80,73.7503
522.90,73.7610
523.00,73.7717
523.10,73.7823
523.20,73.7946
523.30,73.8022
523.40,73.8113
523.50,73.8190
523.60,73.8297
523.70,73.8358
523.80,73.8434
523.90,73.8510
524.00,73.8617
524.10,73.8724
524.20,73.8815
524.30,73.8922
524.40,73.9059
524.50,73.9197
524.60,73.9288
524.70,73.9410
524.80,73.9563
524.90,73.9670
525.00,73.9731
525.10,73.9807
525.20,73.9899
525.30,73.9975
525.40,74.0082
525.50,74.0173
525.60,74.0356
525.70,74.0524
525.80,74.0662
525.90,74.0768
526.00,74.0906
526.10,74.0997
526.20,74.1043
526.30,74.1119
526.40,74.1241
526.50,74.1333
526.60,74.1470
526.70,74.1608
526.80,74.1730
526.90,74.1852
527.00,74.1928
527.10,74.1959
527.20,74.2020
527.30,74.2081
527.40,74.2142
527.50,74.2249
527.60,74.2401
527.70,74.2538
527.80,74.2661
527.90,74.2767
528.00,74.2828
528.10,74.2905
528.20,74.2981
528.30,74.3042
528.40,74.3134
528.50,74.3271
528.60,74.3393
528.70,74.3454
528.80,74.3561
528.90,74.3652
529.00,74.3744
529.10,74.3820
529.20,74.3912
529.30,74.4019
529.40,74.4095
529.50,74.4186
529.60,74.4247
529.70,74.4370
529.80,74.4476
529.90,74.4583
530.00,74.4690
530.10,74.4812
530.20,74.4949
530.30,74.5056
530.40,74.5163
530.50,74.5270
530.60,74.5361
530.70,74.5468
530.80,74.5560
530.90,74.5651
531.00,74.5773
531.10,74.5911
531.20,74.6048
531.30,74.6170
531.40,74.6307
531.50,74.6384
531.60,74.6460
531.70,74.6521
531.80,74.6597
531.90,74.6674
532.00,74.6750
532.10,74.6857
532.20,74.6948
532.30,74.7055
532.40,74.7177
532.50,74.7284
532.60,74.7360
532.70,74.7452
532.80,74.7559
532.90,74.7650
533.00,74.7757
533.10,74.7849
533.20,74.7971
533.30,74.8077
533.40,74.8169
533.50,74.8260
533.60,74.8322
533.70,74.8428
533.80,74.8520
533.90,74.8566
534.00,74.8627
534.10,74.8688
534.20,74.8764
534.30,74.8856
534.40,74.8962
534.50,74.9130
534.60,74.9283
534.70,74.9435
534.80,74.9527
534.90,74.9619
535.00,74.9741
535.10,74.9847
535.20,74.9969
535.30,75.0137
535.40,75.0320
535.50,75.0473
535.60,75.0626
535.70,75.0732
535.80,75.0824
535.90,75.0946
536.00,75.1068
536.10,75.1144
536.20,75.1190
536.30,75.1297
536.40,75.1266
536.50,75.1266
536.60,75.1221
536.70,75.1205
536.80,75.1236
536.90,75.1328
537.00,75.1358
537.10,75.1419
537.20,75.1511
537.30,75.1617
537.40,75.1648
537.50,75.1694
537.60,75.1770
537.70,75.1862
537.80,75.1953
537.90,75.2029
538.00,75.2106
538.10,75.2213
538.20,75.2319
538.30,75.2426
538.40,75.2533
538.50,75.2686
538.60,75.2792
538.70,75.2914
538.80,75.2975
538.90,75.3021
539.00,75.3082
539.10,75.3204
539.20,75.3296
539.30,75.3403
539.40,75.3525
539.50,75.3662
539.60,75.3754
539.70,75.3830
539.80,75.3906
539.90,75.3983
540.00,75.4044
540.10,75.4105
540.20,75.4181
540.30,75.4227
540.40,75.4288
540.50,75.4395
540.60,75.4486
540.70,75.4578
540.80,75.4684
540.90,75.4761
541.00,75.4837
541.10,75.4913
541.20,75.5005
541.30,75.5081
541.40,75.5173
541.50,75.5325
541.60,75.5417
541.70,75.5508
541.80,75.5615
541.90,75.5707
542.00,75.5768
542.10,75.5814
542.20,75.5905
542.30,75.5966
542.40,75.6073
542.50,75.6180
542.60,75.6287
542.70,75.6363
542.80,75.6454
542.90,75.6607
543.00,75.6744
543.10,75.6912
543.20,75.7065
543.30,75.7202
543.40,75.7324
543.50,75.7370
543.60,75.7401
543.70,75.7416
543.80,75.7462
543.90,75.7477
544.00,75.7523
544.10,75.7599
544.20,75.7706
544.30,75.7813
544.40,75.7904
544.50,75.8026
544.60,75.8133
