"MBK - RawData"
"Wavelength nm.","T%"
420.00,100.4959
420.10,100.4959
420.20,100.4913
420.30,100.4898
420.40,100.4868
420.50,100.4852
420.60,100.4837
420.70,100.4791
420.80,100.4776
420.90,100.4684
421.00,100.4669
421.10,100.4684
421.20,100.4700
421.30,100.4623
421.40,100.4608
421.50,100.4532
421.60,100.4410
421.70,100.4410
421.80,100.4425
421.90,100.4456
422.00,100.4562
422.10,100.4684
422.20,100.4807
422.30,100.4791
422.40,100.4730
422.50,100.4700
422.60,100.4684
422.70,100.4608
422.80,100.4593
422.90,100.4608
423.00,100.4684
423.10,100.4623
423.20,100.4593
423.30,100.4501
423.40,100.4425
423.50,100.4379
423.60,100.4349
423.70,100.4379
423.80,100.4440
423.90,100.4471
424.00,100.4486
424.10,100.4532
424.20,100.4486
424.30,100.4562
424.40,100.4532
424.50,100.4486
424.60,100.4471
424.70,100.4578
424.80,100.4562
424.90,100.4578
425.00,100.4654
425.10,100.4684
425.20,100.4639
425.30,100.4608
425.40,100.4578
425.50,100.4547
425.60,100.4578
425.70,100.4593
425.80,100.4608
425.90,100.4623
426.00,100.4562
426.10,100.4532
426.20,100.4486
426.30,100.4410
426.40,100.4333
426.50,100.4303
426.60,100.4333
426.70,100.4395
426.80,100.4349
426.90,100.4410
427.00,100.4410
427.10,100.4379
427.20,100.4349
427.30,100.4303
427.40,100.4288
427.50,100.4211
427.60,100.4211
427.70,100.4242
427.80,100.4242
427.90,100.4272
428.00,100.4288
428.10,100.4303
428.20,100.4349
428.30,100.4364
428.40,100.4379
428.50,100.4395
428.60,100.4440
428.70,100.4486
428.80,100.4501
428.90,100.4532
429.00,100.4593
429.10,100.4578
429.20,100.4593
429.30,100.4608
429.40,100.4593
429.50,100.4532
429.60,100.4395
429.70,100.4364
429.80,100.4272
429.90,100.4272
430.00,100.4288
430.10,100.4272
430.20,100.4425
430.30,100.4440
430.40,100.4578
430.50,100.4715
430.60,100.4822
430.70,100.4852
430.80,100.4791
430.90,100.4745
431.00,100.4745
431.10,100.4745
431.20,100.4730
431.30,100.4700
431.40,100.4730
431.50,100.4654
431.60,100.4517
431.70,100.4440
431.80,100.4410
431.90,100.4395
432.00,100.4395
432.10,100.4379
432.20,100.4364
432.30,100.4318
432.40,100.4257
432.50,100.4303
432.60,100.4395
432.70,100.4456
432.80,100.4456
432.90,100.4547
433.00,100.4547
433.10,100.4501
433.20,100.4471
433.30,100.4471
433.40,100.4425
433.50,100.4501
433.60,100.4578
433.70,100.4593
433.80,100.4654
433.90,100.4745
434.00,100.4745
434.10,100.4730
434.20,100.4715
434.30,100.4654
434.40,100.4547
434.50,100.4547
434.60,100.4456
434.70,100.4471
434.80,100.4562
434.90,100.4578
435.00,100.4517
435.10,100.4486
435.20,100.4456
435.30,100.4333
435.40,100.4272
435.50,100.4318
435.60,100.4364
435.70,100.4364
435.80,100.4364
435.90,100.4425
436.00,100.4547
436.10,100.4593
436.20,100.4639
436.30,100.4684
436.40,100.4654
436.50,100.4623
436.60,100.4547
436.70,100.4532
436.80,100.4425
436.90,100.4425
437.00,100.4440
437.10,100.4425
437.20,100.4349
437.30,100.4333
437.40,100.4318
437.50,100.4318
437.60,100.4288
437.70,100.4242
437.80,100.4303
437.90,100.4288
438.00,100.4272
438.10,100.4257
438.20,100.4288
438.30,100.4257
438.40,100.4242
438.50,100.4288
438.60,100.4333
438.70,100.4410
438.80,100.4456
438.90,100.4471
439.00,100.4410
439.10,100.4333
439.20,100.4364
439.30,100.4379
439.40,100.4425
439.50,100.4456
439.60,100.4517
439.70,100.4501
439.80,100.4501
439.90,100.4471
440.00,100.4456
440.10,100.4456
440.20,100.4425
440.30,100.4364
440.40,100.4303
440.50,100.4303
440.60,100.4288
440.70,100.4257
440.80,100.4242
440.90,100.4272
441.00,100.4242
441.10,100.4227
441.20,100.4227
441.30,100.4288
441.40,100.4333
441.50,100.4395
441.60,100.4456
441.70,100.4501
441.80,100.4456
441.90,100.4349
442.00,100.4288
442.10,100.4227
442.20,100.4227
442.30,100.4227
442.40,100.4242
442.50,100.4288
442.60,100.4288
442.70,100.4318
442.80,100.4333
442.90,100.4410
443.00,100.4440
443.10,100.4486
443.20,100.4501
443.30,100.4471
443.40,100.4379
443.50,100.4318
443.60,100.4272
443.70,100.4288
443.80,100.4257
443.90,100.4242
444.00,100.4211
444.10,100.4227
444.20,100.4227
444.30,100.4181
444.40,100.4227
444.50,100.4288
444.60,100.4349
444.70,100.4425
444.80,100.4486
444.90,100.4532
445.00,100.4562
445.10,100.4501
445.20,100.4395
445.30,100.4364
445.40,100.4349
445.50,100.4242
445.60,100.4303
445.70,100.4318
445.80,100.4318
445.90,100.4303
446.00,100.4303
446.10,100.4303
446.20,100.4303
446.30,100.4303
446.40,100.4303
446.50,100.4333
446.60,100.4349
446.70,100.4379
446.80,100.4364
446.90,100.4425
447.00,100.4486
447.10,100.4517
447.20,100.4517
447.30,100.4547
447.40,100.4562
447.50,100.4517
447.60,100.4532
447.70,100.4486
447.80,100.4517
447.90,100.4471
448.00,100.4486
448.10,100.4440
448.20,100.4395
448.30,100.4395
448.40,100.4333
448.50,100.4288
448.60,100.4211
448.70,100.4150
448.80,100.4105
448.90,100.4120
449.00,100.4120
449.10,100.4120
449.20,100.4166
449.30,100.4211
449.40,100.4166
449.50,100.4089
449.60,100.4105
449.70,100.4181
449.80,100.4150
449.90,100.4196
450.00,100.4227
450.10,100.4272
450.20,100.4257
450.30,100.4242
450.40,100.4257
450.50,100.4257
450.60,100.4272
450.70,100.4303
450.80,100.4257
450.90,100.4196
451.00,100.4181
451.10,100.4181
451.20,100.4120
451.30,100.4135
451.40,100.4135
451.50,100.4227
451.60,100.4242
451.70,100.4257
451.80,100.4272
451.90,100.4272
452.00,100.4288
452.10,100.4272
452.20,100.4227
452.30,100.4227
452.40,100.4257
452.50,100.4288
452.60,100.4303
452.70,100.4303
452.80,100.4288
452.90,100.4257
453.00,100.4211
453.10,100.4135
453.20,100.4089
453.30,100.4089
453.40,100.4120
453.50,100.4120
453.60,100.4120
453.70,100.4105
453.80,100.4059
453.90,100.3983
454.00,100.3906
454.10,100.3891
454.20,100.3891
454.30,100.3937
454.40,100.3967
454.50,100.3998
454.60,100.4044
454.70,100.4028
454.80,100.4013
454.90,100.4044
455.00,100.4028
455.10,100.4013
455.20,100.3998
455.30,100.4028
455.40,100.4059
455.50,100.4089
455.60,100.4105
455.70,100.4150
455.80,100.4135
455.90,100.4150
456.00,100.4120
456.10,100.4135
456.20,100.4150
456.30,100.4120
456.40,100.4089
456.50,100.4089
456.60,100.4059
456.70,100.4028
456.80,100.4059
456.90,100.4089
457.00,100.4105
457.10,100.4135
457.20,100.4150
457.30,100.4135
457.40,100.4120
457.50,100.4120
457.60,100.4105
457.70,100.4120
457.80,100.4135
457.90,100.4150
458.00,100.4181
458.10,100.4196
458.20,100.4196
458.30,100.4135
458.40,100.4150
458.50,100.4105
458.60,100.4074
458.70,100.4013
458.80,100.4105
458.90,100.4105
459.00,100.4074
459.10,100.4028
459.20,100.4028
459.30,100.3952
459.40,100.3906
459.50,100.3860
459.60,100.3876
459.70,100.3922
459.80,100.3937
459.90,100.3937
460.00,100.3891
460.10,100.3906
460.20,100.3860
460.30,100.3815
460.40,100.3815
460.50,100.3815
460.60,100.3891
460.70,100.4013
460.80,100.4120
460.90,100.4196
461.00,100.4272
461.10,100.4379
461.20,100.4349
461.30,100.4272
461.40,100.4242
461.50,100.4196
461.60,100.4181
461.70,100.4211
461.80,100.4211
461.90,100.4242
462.00,100.4303
462.10,100.4318
462.20,100.4288
462.30,100.4288
462.40,100.4288
462.50,100.4272
462.60,100.4211
462.70,100.4120
462.80,100.4074
462.90,100.4028
463.00,100.3967
463.10,100.3937
463.20,100.3891
463.30,100.3815
463.40,100.3769
463.50,100.3738
463.60,100.3662
463.70,100.3632
463.80,100.3647
463.90,100.3647
464.00,100.3662
464.10,100.3662
464.20,100.3677
464.30,100.3738
464.40,100.3784
464.50,100.3799
464.60,100.3860
464.70,100.3967
464.80,100.4074
464.90,100.4105
465.00,100.4196
465.10,100.4227
465.20,100.4227
465.30,100.4181
465.40,100.4135
465.50,100.4105
465.60,100.4074
465.70,100.4044
465.80,100.3998
465.90,100.4013
466.00,100.4013
466.10,100.3998
466.20,100.3983
466.30,100.3998
466.40,100.3967
466.50,100.3998
466.60,100.4028
466.70,100.4044
466.80,100.4013
466.90,100.3998
467.00,100.4013
467.10,100.3983
467.20,100.3922
467.30,100.3922
467.40,100.3906
467.50,100.3845
467.60,100.3815
467.70,100.3738
467.80,100.3708
467.90,100.3647
468.00,100.3632
468.10,100.3616
468.20,100.3601
468.30,100.3632
468.40,100.3647
468.50,100.3662
468.60,100.3647
468.70,100.3662
468.80,100.3616
468.90,100.3632
469.00,100.3632
469.10,100.3662
469.20,100.3693
469.30,100.3723
469.40,100.3769
469.50,100.3784
469.60,100.3784
469.70,100.3784
469.80,100.3784
469.90,100.3754
470.00,100.3754
470.10,100.3738
470.20,100.3769
470.30,100.3784
470.40,100.3845
470.50,100.3815
470.60,100.3815
470.70,100.3799
470.80,100.3799
470.90,100.3784
471.00,100.3769
471.10,100.3784
471.20,100.3754
471.30,100.3754
471.40,100.3738
471.50,100.3784
471.60,100.3769
471.70,100.3738
471.80,100.3769
471.90,100.3769
472.00,100.3754
472.10,100.3784
472.20,100.3799
472.30,100.3845
472.40,100.3891
472.50,100.3906
472.60,100.3922
472.70,100.3891
472.80,100.3876
472.90,100.3876
473.00,100.3815
473.10,100.3754
473.20,100.3754
473.30,100.3723
473.40,100.3632
473.50,100.3555
473.60,100.3510
473.70,100.3464
473.80,100.3403
473.90,100.3418
474.00,100.3418
474.10,100.3464
474.20,100.3494
474.30,100.3433
474.40,100.3433
474.50,100.3464
474.60,100.3510
474.70,100.3525
474.80,100.3586
474.90,100.3662
475.00,100.3708
475.10,100.3723
475.20,100.3708
475.30,100.3738
475.40,100.3769
475.50,100.3754
475.60,100.3754
475.70,100.3784
475.80,100.3845
475.90,100.3891
476.00,100.3906
476.10,100.3937
476.20,100.3967
476.30,100.3937
476.40,100.3906
476.50,100.3876
476.60,100.3922
476.70,100.3967
476.80,100.3983
476.90,100.3983
477.00,100.3983
477.10,100.3967
477.20,100.3860
477.30,100.3784
477.40,100.3754
477.50,100.3769
477.60,100.3754
477.70,100.3708
477.80,100.3723
477.90,100.3708
478.00,100.3647
478.10,100.3571
478.20,100.3586
478.30,100.3616
478.40,100.3586
478.50,100.3632
478.60,100.3723
478.70,100.3738
478.80,100.3769
478.90,100.3799
479.00,100.3845
479.10,100.3830
479.20,100.3784
479.30,100.3738
479.40,100.3708
479.50,100.3677
479.60,100.3632
479.70,100.3571
479.80,100.3555
479.90,100.3540
480.00,100.3525
480.10,100.3494
480.20,100.3540
480.30,100.3601
480.40,100.3601
480.50,100.3601
480.60,100.3616
480.70,100.3540
480.80,100.3540
480.90,100.3525
481.00,100.3479
481.10,100.3479
481.20,100.3555
481.30,100.3586
481.40,100.3540
481.50,100.3586
481.60,100.3616
481.70,100.3632
481.80,100.3616
481.90,100.3586
482.00,100.3601
482.10,100.3494
482.20,100.3418
482.30,100.3387
482.40,100.3448
482.50,100.3448
482.60,100.3464
482.70,100.3540
482.80,100.3586
482.90,100.3586
483.00,100.3586
483.10,100.3571
483.20,100.3510
483.30,100.3448
483.40,100.3387
483.50,100.3357
483.60,100.3387
483.70,100.3387
483.80,100.3418
483.90,100.3387
484.00,100.3372
484.10,100.3403
484.20,100.3403
484.30,100.3433
484.40,100.3448
484.50,100.3494
484.60,100.3540
484.70,100.3586
484.80,100.3632
484.90,100.3647
485.00,100.3632
485.10,100.3601
485.20,100.3555
485.30,100.3494
485.40,100.3479
485.50,100.3479
485.60,100.3479
485.70,100.3479
485.80,100.3464
485.90,100.3510
486.00,100.3510
486.10,100.3555
486.20,100.3601
486.30,100.3677
486.40,100.3723
486.50,100.3738
486.60,100.3738
486.70,100.3754
486.80,100.3708
486.90,100.3632
487.00,100.3601
487.10,100.3586
487.20,100.3525
487.30,100.3464
487.40,100.3464
487.50,100.3494
487.60,100.3479
487.70,100.3525
487.80,100.3525
487.90,100.3647
488.00,100.3647
488.10,100.3662
488.20,100.3723
488.30,100.3754
488.40,100.3738
488.50,100.3693
488.60,100.3693
488.70,100.3647
488.80,100.3540
488.90,100.3479
489.00,100.3433
489.10,100.3403
489.20,100.3387
489.30,100.3433
489.40,100.3525
489.50,100.3571
489.60,100.3555
489.70,100.3510
489.80,100.3494
489.90,100.3464
490.00,100.3418
490.10,100.3403
490.20,100.3418
490.30,100.3403
490.40,100.3403
490.50,100.3403
490.60,100.3387
490.70,100.3433
490.80,100.3479
490.90,100.3464
491.00,100.3464
491.10,100.3464
491.20,100.3479
491.30,100.3433
491.40,100.3433
491.50,100.3433
491.60,100.3418
491.70,100.3372
491.80,100.3418
491.90,100.3479
492.00,100.3510
492.10,100.3525
492.20,100.3510
492.30,100.3448
492.40,100.3387
492.50,100.3357
492.60,100.3311
492.70,100.3296
492.80,100.3326
492.90,100.3342
493.00,100.3296
493.10,100.3265
493.20,100.3265
493.30,100.3250
493.40,100.3250
493.50,100.3281
493.60,100.3296
493.70,100.3296
493.80,100.3342
493.90,100.3387
494.00,100.3418
494.10,100.3387
494.20,100.3357
494.30,100.3372
494.40,100.3357
494.50,100.3326
494.60,100.3342
494.70,100.3357
494.80,100.3342
494.90,100.3326
495.00,100.3372
495.10,100.3342
495.20,100.3326
495.30,100.3311
495.40,100.3296
495.50,100.3296
495.60,100.3296
495.70,100.3372
495.80,100.3418
495.90,100.3494
496.00,100.3540
496.10,100.3540
496.20,100.3510
496.30,100.3464
496.40,100.3494
496.50,100.3448
496.60,100.3418
496.70,100.3464
496.80,100.3510
496.90,100.3525
497.00,100.3540
497.10,100.3616
497.20,100.3616
497.30,100.3647
497.40,100.3693
497.50,100.3693
497.60,100.3708
497.70,100.3693
497.80,100.3677
497.90,100.3632
498.00,100.3601
498.10,100.3571
498.20,100.3555
498.30,100.3540
498.40,100.3510
498.50,100.3479
498.60,100.3433
498.70,100.3403
498.80,100.3387
498.90,100.3342
499.00,100.3342
499.10,100.3357
499.20,100.3387
499.30,100.3403
499.40,100.3387
499.50,100.3433
499.60,100.3418
499.70,100.3418
499.80,100.3448
499.90,100.3448
500.00,100.3418
500.10,100.3433
500.20,100.3418
500.30,100.3387
500.40,100.3326
500.50,100.3326
500.60,100.3296
500.70,100.3265
500.80,100.3235
500.90,100.3204
501.00,100.3189
501.10,100.3174
501.20,100.3159
501.30,100.3143
501.40,100.3067
501.50,100.3082
501.60,100.3113
501.70,100.3143
501.80,100.3235
501.90,100.3296
502.00,100.3311
502.10,100.3265
502.20,100.3250
502.30,100.3204
502.40,100.3174
502.50,100.3189
502.60,100.3281
502.70,100.3326
502.80,100.3342
502.90,100.3342
503.00,100.3357
503.10,100.3311
503.20,100.3342
503.30,100.3403
503.40,100.3448
503.50,100.3479
503.60,100.3525
503.70,100.3525
503.80,100.3494
503.90,100.3448
504.00,100.3403
504.10,100.3357
504.20,100.3311
504.30,100.3281
504.40,100.3265
504.50,100.3311
504.60,100.3311
504.70,100.3296
504.80,100.3235
504.90,100.3204
505.00,100.3174
505.10,100.3159
505.20,100.3159
505.30,100.3143
505.40,100.3143
505.50,100.3098
505.60,100.3052
505.70,100.3006
505.80,100.3021
505.90,100.3052
506.00,100.3113
506.10,100.3128
506.20,100.3174
506.30,100.3174
506.40,100.3143
506.50,100.3082
506.60,100.3067
506.70,100.3021
506.80,100.2975
506.90,100.2914
507.00,100.2914
507.10,100.2930
507.20,100.2914
507.30,100.2930
507.40,100.3006
507.50,100.3036
507.60,100.3036
507.70,100.3067
507.80,100.3128
507.90,100.3143
508.00,100.3204
508.10,100.3250
508.20,100.3281
508.30,100.3281
508.40,100.3281
508.50,100.3235
508.60,100.3174
508.70,100.3113
508.80,100.3067
508.90,100.3021
509.00,100.3036
509.10,100.3052
509.20,100.3082
509.30,100.3113
509.40,100.3128
509.50,100.3143
509.60,100.3174
509.70,100.3189
509.80,100.3174
509.90,100.3174
510.00,100.3174
510.10,100.3128
510.20,100.3143
510.30,100.3143
510.40,100.3128
510.50,100.3082
510.60,100.3128
510.70,100.3128
510.80,100.3113
510.90,100.3098
511.00,100.3113
511.10,100.3098
511.20,100.3067
511.30,100.3113
511.40,100.3067
511.50,100.3021
511.60,100.3006
511.70,100.2991
511.80,100.2975
511.90,100.2975
512.00,100.3006
512.10,100.3052
512.20,100.3113
512.30,100.3128
512.40,100.3113
512.50,100.3128
512.60,100.3098
512.70,100.3082
512.80,100.3082
512.90,100.3052
513.00,100.2991
513.10,100.2914
513.20,100.2899
513.30,100.2869
513.40,100.2823
513.50,100.2808
513.60,100.2899
513.70,100.2960
513.80,100.2975
513.90,100.3006
514.00,100.3098
514.10,100.3143
514.20,100.3098
514.30,100.3098
514.40,100.3128
514.50,100.3113
514.60,100.3128
514.70,100.3174
514.80,100.3189
514.90,100.3159
515.00,100.3220
515.10,100.3204
515.20,100.3113
515.30,100.3052
515.40,100.3021
515.50,100.3021
515.60,100.2960
515.70,100.2914
515.80,100.2930
515.90,100.2884
516.00,100.2884
516.10,100.2884
516.20,100.2899
516.30,100.2899
516.40,100.2930
516.50,100.2975
516.60,100.2991
516.70,100.2960
516.80,100.2975
516.90,100.3006
517.00,100.3021
517.10,100.3067
517.20,100.3128
517.30,100.3189
517.40,100.3204
517.50,100.3159
517.60,100.3174
517.70,100.3143
517.80,100.3128
517.90,100.3113
518.00,100.3098
518.10,100.3098
518.20,100.3052
518.30,100.3067
518.40,100.3052
518.50,100.3067
518.60,100.3067
518.70,100.3098
518.80,100.3098
518.90,100.3082
519.00,100.3021
519.10,100.2991
519.20,100.2991
519.30,100.2945
519.40,100.2884
519.50,100.2899
519.60,100.2899
519.70,100.2899
519.80,100.2853
519.90,100.2914
520.00,100.2945
520.10,100.2930
520.20,100.2930
520.30,100.2960
520.40,100.2960
520.50,100.2930
520.60,100.2914
520.70,100.2914
520.80,100.2899
520.90,100.2930
521.00,100.2991
521.10,100.3006
521.20,100.3067
521.30,100.3082
521.40,100.3067
521.50,100.3067
521.60,100.3067
521.70,100.3067
521.80,100.3052
521.90,100.3082
522.00,100.3098
522.10,100.3052
522.20,100.3052
522.30,100.3067
522.40,100.3067
522.50,100.3052
522.60,100.2991
522.70,100.2960
522.80,100.2945
522.90,100.2899
523.00,100.2838
523.10,100.2869
523.20,100.2899
523.30,100.2899
523.40,100.2838
523.50,100.2823
523.60,100.2808
523.70,100.2747
523.80,100.2701
523.90,100.2655
524.00,100.2670
524.10,100.2655
524.20,100.2670
524.30,100.2701
524.40,100.2762
524.50,100.2762
524.60,100.2762
524.70,100.2762
524.80,100.2823
524.90,100.2808
525.00,100.2792
525.10,100.2792
525.20,100.2747
525.30,100.2701
525.40,100.2686
525.50,100.2686
525.60,100.2670
525.70,100.2747
525.80,100.2808
525.90,100.2838
526.00,100.2853
526.10,100.2853
526.20,100.2869
526.30,100.2853
526.40,100.2853
526.50,100.2823
526.60,100.2838
526.70,100.2838
526.80,100.2808
526.90,100.2838
527.00,100.2853
527.10,100.2808
527.20,100.2808
527.30,100.2823
527.40,100.2884
527.50,100.2869
527.60,100.2914
527.70,100.2930
527.80,100.2945
527.90,100.2884
528.00,100.2762
528.10,100.2716
528.20,100.2701
528.30,100.2731
528.40,100.2747
528.50,100.2838
528.60,100.2960
528.70,100.2975
528.80,100.2975
528.90,100.2945
529.00,100.2945
529.10,100.2930
529.20,100.2838
529.30,100.2823
529.40,100.2762
529.50,100.2777
529.60,100.2792
529.70,100.2853
529.80,100.2899
529.90,100.2914
530.00,100.2945
530.10,100.2914
530.20,100.2884
530.30,100.2869
530.40,100.2884
530.50,100.2914
530.60,100.2899
530.70,100.2899
530.80,100.2914
530.90,100.2930
531.00,100.2930
531.10,100.2930
531.20,100.2914
531.30,100.2899
531.40,100.2884
531.50,100.2808
531.60,100.2747
531.70,100.2731
531.80,100.2777
531.90,100.2808
532.00,100.2823
532.10,100.2869
532.20,100.2899
532.30,100.2884
532.40,100.2869
532.50,100.2823
532.60,100.2792
532.70,100.2777
532.80,100.2747
532.90,100.2716
533.00,100.2701
533.10,100.2701
533.20,100.2747
533.30,100.2777
533.40,100.2777
533.50,100.2792
533.60,100.2762
533.70,100.2731
533.80,100.2701
533.90,100.2670
534.00,100.2609
534.10,100.2609
534.20,100.2563
534.30,100.2533
534.40,100.2518
534.50,100.2533
534.60,100.2533
534.70,100.2533
534.80,100.2563
534.90,100.2563
535.00,100.2563
535.10,100.2655
535.20,100.2716
535.30,100.2853
535.40,100.2991
535.50,100.3098
535.60,100.3113
535.70,100.3113
535.80,100.3036
535.90,100.3006
536.00,100.2945
536.10,100.2945
536.20,100.2884
536.30,100.2930
536.40,100.2853
536.50,100.2747
536.60,100.2640
536.70,100.2502
536.80,100.2426
536.90,100.2335
537.00,100.2197
537.10,100.2075
537.20,100.2029
537.30,100.2045
537.40,100.2045
537.50,100.2075
537.60,100.2121
537.70,100.2197
537.80,100.2182
537.90,100.2151
538.00,100.2090
538.10,100.2121
538.20,100.2075
538.30,100.2060
538.40,100.2075
538.50,100.2121
538.60,100.2136
538.70,100.2151
538.80,100.2151
538.90,100.2136
539.00,100.2106
539.10,100.2090
539.20,100.2045
539.30,100.2060
539.40,100.2090
539.50,100.2121
539.60,100.2106
539.70,100.2121
539.80,100.2121
539.90,100.2075
540.00,100.2060
540.10,100.2029
540.20,100.1999
540.30,100.2045
540.40,100.2090
540.50,100.2106
540.60,100.2075
540.70,100.2045
540.80,100.2029
540.90,100.1953
541.00,100.1892
541.10,100.1892
541.20,100.1907
541.30,100.1923
541.40,100.1953
541.50,100.1984
541.60,100.1953
541.70,100.1953
541.80,100.1968
541.90,100.1953
542.00,100.1938
542.10,100.2014
542.20,100.2121
542.30,100.2167
542.40,100.2243
542.50,100.2319
542.60,100.2335
542.70,100.2319
542.80,100.2304
542.90,100.2319
543.00,100.2335
543.10,100.2350
543.20,100.2380
543.30,100.2350
543.40,100.2350
543.50,100.2304
543.60,100.2258
543.70,100.2167
543.80,100.2121
543.90,100.1984
544.00,100.1938
544.10,100.1877
544.20,100.1877
544.30,100.1877
544.40,100.1907
544.50,100.1953
544.60,100.1999
544.70,100.1999
544.80,100.2014
544.90,100.2029
545.00,100.1999
545.10,100.1938
545.20,100.1953
545.30,100.1953
545.40,100.1938
545.50,100.1953
545.60,100.1968
545.70,100.1968
545.80,100.1968
545.90,100.1984
546.00,100.2014
546.10,100.2029
546.20,100.2045
546.30,100.2029
546.40,100.2029
546.50,100.1984
546.60,100.1923
546.70,100.1907
546.80,100.1923
546.90,100.1877
547.00,100.1877
547.10,100.1938
547.20,100.1938
547.30,100.1877
547.40,100.1877
547.50,100.1892
547.60,100.1907
547.70,100.1938
547.80,100.2014
547.90,100.2075
548.00,100.2106
548.10,100.2136
548.20,100.2090
548.30,100.2075
548.40,100.2060
548.50,100.2045
548.60,100.2014
548.70,100.2060
548.80,100.2075
548.90,100.2090
549.00,100.2106
549.10,100.2090
549.20,100.2060
549.30,100.1984
549.40,100.1923
549.50,100.1831
549.60,100.1816
549.70,100.1801
549.80,100.1785
549.90,100.1801
550.00,100.1770
550.10,100.1755
550.20,100.1678
550.30,100.1617
550.40,100.1587
550.50,100.1556
550.60,100.1511
550.70,100.1480
550.80,100.1465
550.90,100.1465
551.00,100.1526
551.10,100.1572
551.20,100.1587
551.30,100.1648
551.40,100.1678
551.50,100.1678
551.60,100.1617
551.70,100.1633
551.80,100.1709
551.90,100.1755
552.00,100.1785
552.10,100.1831
552.20,100.1877
552.30,100.1892
552.40,100.1938
552.50,100.1968
552.60,100.1984
552.70,100.2029
552.80,100.2060
552.90,100.2029
553.00,100.2014
553.10,100.2014
553.20,100.1984
553.30,100.1923
553.40,100.1892
553.50,100.1862
553.60,100.1801
553.70,100.1740
553.80,100.1694
553.90,100.1648
554.00,100.1587
554.10,100.1511
554.20,100.1480
554.30,100.1465
554.40,100.1450
554.50,100.1434
554.60,100.1404
554.70,100.1465
554.80,100.1541
554.90,100.1587
555.00,100.1648
555.10,100.1724
555.20,100.1785
555.30,100.1816
555.40,100.1785
555.50,100.1785
555.60,100.1801
555.70,100.1816
555.80,100.1816
555.90,100.1801
556.00,100.1770
556.10,100.1755
556.20,100.1724
556.30,100.1709
556.40,100.1755
556.50,100.1831
556.60,100.1892
556.70,100.1907
556.80,100.1892
556.90,100.1907
557.00,100.1877
557.10,100.1846
557.20,100.1892
557.30,100.1923
557.40,100.1923
557.50,100.1862
557.60,100.1831
557.70,100.1816
557.80,100.1724
557.90,100.1694
558.00,100.1663
558.10,100.1648
558.20,100.1617
558.30,100.1633
558.40,100.1648
558.50,100.1633
558.60,100.1648
558.70,100.1648
558.80,100.1617
558.90,100.1587
559.00,100.1617
559.10,100.1617
559.20,100.1617
559.30,100.1617
559.40,100.1633
559.50,100.1678
559.60,100.1724
559.70,100.1770
559.80,100.1846
559.90,100.1892
560.00,100.1877
560.10,100.1831
560.20,100.1816
560.30,100.1785
560.40,100.1770
560.50,100.1770
560.60,100.1801
560.70,100.1846
560.80,100.1816
560.90,100.1785
561.00,100.1755
561.10,100.1740
561.20,100.1724
561.30,100.1709
561.40,100.1724
561.50,100.1770
561.60,100.1740
561.70,100.1740
561.80,100.1724
561.90,100.1740
562.00,100.1694
562.10,100.1678
562.20,100.1694
562.30,100.1694
562.40,100.1694
562.50,100.1694
562.60,100.1724
562.70,100.1770
562.80,100.1724
562.90,100.1663
563.00,100.1602
563.10,100.1526
563.20,100.1480
563.30,100.1465
563.40,100.1465
563.50,100.1465
563.60,100.1511
563.70,100.1511
563.80,100.1434
563.90,100.1389
564.00,100.1373
564.10,100.1358
564.20,100.1358
564.30,100.1404
564.40,100.1419
564.50,100.1419
564.60,100.1404
564.70,100.1343
564.80,100.1251
564.90,100.1160
565.00,100.1175
565.10,100.1205
565.20,100.1190
565.30,100.1221
565.40,100.1297
565.50,100.1343
565.60,100.1328
565.70,100.1297
565.80,100.1343
565.90,100.1404
566.00,100.1465
566.10,100.1450
566.20,100.1419
566.30,100.1389
566.40,100.1358
566.50,100.1343
566.60,100.1297
566.70,100.1343
566.80,100.1419
566.90,100.1465
567.00,100.1511
567.10,100.1541
567.20,100.1572
567.30,100.1617
567.40,100.1648
567.50,100.1617
567.60,100.1663
567.70,100.1663
567.80,100.1663
567.90,100.1602
568.00,100.1587
568.10,100.1602
568.20,100.1587
568.30,100.1633
568.40,100.1648
568.50,100.1694
568.60,100.1755
568.70,100.1740
568.80,100.1678
568.90,100.1633
569.00,100.1617
569.10,100.1572
569.20,100.1541
569.30,100.1541
569.40,100.1526
569.50,100.1495
569.60,100.1480
569.70,100.1465
569.80,100.1465
569.90,100.1511
570.00,100.1526
570.10,100.1495
570.20,100.1480
570.30,100.1450
570.40,100.1373
570.50,100.1343
570.60,100.1297
570.70,100.1297
570.80,100.1297
570.90,100.1328
571.00,100.1343
571.10,100.1343
571.20,100.1343
571.30,100.1343
571.40,100.1358
571.50,100.1373
571.60,100.1343
571.70,100.1343
571.80,100.1328
571.90,100.1312
572.00,100.1312
572.10,100.1282
572.20,100.1297
572.30,100.1358
572.40,100.1373
572.50,100.1343
572.60,100.1343
572.70,100.1373
572.80,100.1358
572.90,100.1343
573.00,100.1343
573.10,100.1343
573.20,100.1297
573.30,100.1190
573.40,100.1114
573.50,100.1053
573.60,100.0992
573.70,100.0977
573.80,100.1038
573.90,100.1083
574.00,100.1099
574.10,100.1160
574.20,100.1175
574.30,100.1205
574.40,100.1144
574.50,100.1175
574.60,100.1236
574.70,100.1221
574.80,100.1251
574.90,100.1312
575.00,100.1343
575.10,100.1373
575.20,100.1358
575.30,100.1373
575.40,100.1373
575.50,100.1404
575.60,100.1434
575.70,100.1434
575.80,100.1450
575.90,100.1434
576.00,100.1480
576.10,100.1434
576.20,100.1343
576.30,100.1297
576.40,100.1266
576.50,100.1190
576.60,100.1160
576.70,100.1175
576.80,100.1175
576.90,100.1144
577.00,100.1083
577.10,100.1007
577.20,100.0931
577.30,100.0839
577.40,100.0809
577.50,100.0763
577.60,100.0778
577.70,100.0778
577.80,100.0839
577.90,100.0885
578.00,100.0946
578.10,100.0961
578.20,100.0977
578.30,100.1007
578.40,100.1038
578.50,100.1038
578.60,100.1053
578.70,100.1038
578.80,100.1053
578.90,100.1038
579.00,100.1007
579.10,100.1053
579.20,100.1068
579.30,100.1053
579.40,100.0992
579.50,100.0931
579.60,100.0961
579.70,100.0961
579.80,100.1007
579.90,100.1038
580.00,100.1114
580.10,100.1175
580.20,100.1205
580.30,100.1190
580.40,100.1221
580.50,100.1221
580.60,100.1205
580.70,100.1160
580.80,100.1114
580.90,100.1114
581.00,100.1053
581.10,100.1068
581.20,100.1099
581.30,100.1114
581.40,100.1099
581.50,100.1083
581.60,100.1038
581.70,100.0977
581.80,100.0977
581.90,100.0946
582.00,100.0916
582.10,100.0931
582.20,100.0961
582.30,100.0931
582.40,100.0931
582.50,100.0977
582.60,100.0992
582.70,100.0977
582.80,100.1007
582.90,100.1007
583.00,100.1007
583.10,100.1022
583.20,100.1022
583.30,100.1007
583.40,100.1007
583.50,100.1068
583.60,100.1083
583.70,100.1099
583.80,100.1114
583.90,100.1129
584.00,100.1114
584.10,100.1099
584.20,100.1129
584.30,100.1099
584.40,100.1083
584.50,100.1129
584.60,100.1144
584.70,100.1129
584.80,100.1099
584.90,100.1099
585.00,100.1068
585.10,100.0992
585.20,100.0900
585.30,100.0839
585.40,100.0763
585.50,100.0732
585.60,100.0717
585.70,100.0656
585.80,100.0641
585.90,100.0626
586.00,100.0641
586.10,100.0656
586.20,100.0732
586.30,100.0793
586.40,100.0854
586.50,100.0900
586.60,100.0931
586.70,100.0885
586.80,100.0839
586.90,100.0717
587.00,100.0656
587.10,100.0626
587.20,100.0626
587.30,100.0641
587.40,100.0671
587.50,100.0763
587.60,100.0824
587.70,100.0931
587.80,100.0992
587.90,100.1007
588.00,100.1053
588.10,100.1083
588.20,100.1099
588.30,100.1114
588.40,100.1114
588.50,100.1083
588.60,100.1068
588.70,100.1053
588.80,100.0961
588.90,100.0900
589.00,100.0885
589.10,100.0854
589.20,100.0824
589.30,100.0793
589.40,100.0870
589.50,100.0885
589.60,100.0870
589.70,100.0839
589.80,100.0778
589.90,100.0671
590.00,100.0580
590.10,100.0595
590.20,100.0595
590.30,100.0580
590.40,100.0549
590.50,100.0549
590.60,100.0534
590.70,100.0549
590.80,100.0504
590.90,100.0488
591.00,100.0534
591.10,100.0504
591.20,100.0519
591.30,100.0519
591.40,100.0534
591.50,100.0549
591.60,100.0626
591.70,100.0671
591.80,100.0671
591.90,100.0687
592.00,100.0732
592.10,100.0702
592.20,100.0687
592.30,100.0702
592.40,100.0732
592.50,100.0778
592.60,100.0809
592.70,100.0809
592.80,100.0793
592.90,100.0717
593.00,100.0748
593.10,100.0702
593.20,100.0656
593.30,100.0626
593.40,100.0610
593.50,100.0580
593.60,100.0549
593.70,100.0549
593.80,100.0534
593.90,100.0549
594.00,100.0610
594.10,100.0565
594.20,100.0519
594.30,100.0519
594.40,100.0549
594.50,100.0519
594.60,100.0504
594.70,100.0565
594.80,100.0610
594.90,100.0626
595.00,100.0641
595.10,100.0641
595.20,100.0656
595.30,100.0626
595.40,100.0641
595.50,100.0595
595.60,100.0580
595.70,100.0565
595.80,100.0580
595.90,100.0565
596.00,100.0580
596.10,100.0626
596.20,100.0656
596.30,100.0656
596.40,100.0610
596.50,100.0595
596.60,100.0580
596.70,100.0549
596.80,100.0519
596.90,100.0534
597.00,100.0534
597.10,100.0565
597.20,100.0595
597.30,100.0641
597.40,100.0656
597.50,100.0687
597.60,100.0717
597.70,100.0702
597.80,100.0656
597.90,100.0626
598.00,100.0641
598.10,100.0595
598.20,100.0595
598.30,100.0595
598.40,100.0565
598.50,100.0534
598.60,100.0504
598.70,100.0488
598.80,100.0427
598.90,100.0412
599.00,100.0351
599.10,100.0320
599.20,100.0305
599.30,100.0305
599.40,100.0336
599.50,100.0336
599.60,100.0336
599.70,100.0366
599.80,100.0366
599.90,100.0381
600.00,100.0366
600.10,100.0381
600.20,100.0366
600.30,100.0397
600.40,100.0427
600.50,100.0473
600.60,100.0565
600.70,100.0626
600.80,100.0580
600.90,100.0488
601.00,100.0443
601.10,100.0397
601.20,100.0351
601.30,100.0366
601.40,100.0412
601.50,100.0443
601.60,100.0458
601.70,100.0427
601.80,100.0381
601.90,100.0366
602.00,100.0351
602.10,100.0290
602.20,100.0275
602.30,100.0305
602.40,100.0320
602.50,100.0290
602.60,100.0290
602.70,100.0305
602.80,100.0351
602.90,100.0381
603.00,100.0427
603.10,100.0473
603.20,100.0519
603.30,100.0488
603.40,100.0443
603.50,100.0397
603.60,100.0336
603.70,100.0305
603.80,100.0275
603.90,100.0275
604.00,100.0320
604.10,100.0320
604.20,100.0366
604.30,100.0366
604.40,100.0366
604.50,100.0351
604.60,100.0351
604.70,100.0397
604.80,100.0397
604.90,100.0412
605.00,100.0427
605.10,100.0427
605.20,100.0427
605.30,100.0427
605.40,100.0443
605.50,100.0443
605.60,100.0412
605.70,100.0381
605.80,100.0397
605.90,100.0397
606.00,100.0397
606.10,100.0427
606.20,100.0473
606.30,100.0488
606.40,100.0427
606.50,100.0381
606.60,100.0351
606.70,100.0381
606.80,100.0366
606.90,100.0381
607.00,100.0443
607.10,100.0473
607.20,100.0443
607.30,100.0427
607.40,100.0427
607.50,100.0381
607.60,100.0397
607.70,100.0427
607.80,100.0412
607.90,100.0381
608.00,100.0366
608.10,100.0366
608.20,100.0366
608.30,100.0381
608.40,100.0458
608.50,100.0443
608.60,100.0458
608.70,100.0397
608.80,100.0336
608.90,100.0305
609.00,100.0290
609.10,100.0259
609.20,100.0244
609.30,100.0320
609.40,100.0336
609.50,100.0351
609.60,100.0412
609.70,100.0504
609.80,100.0519
609.90,100.0488
610.00,100.0488
610.10,100.0458
610.20,100.0381
610.30,100.0351
610.40,100.0351
610.50,100.0336
610.60,100.0305
610.70,100.0305
610.80,100.0275
610.90,100.0259
611.00,100.0244
611.10,100.0244
611.20,100.0244
611.30,100.0259
611.40,100.0244
611.50,100.0244
611.60,100.0244
611.70,100.0244
611.80,100.0290
611.90,100.0305
612.00,100.0320
612.10,100.0336
612.20,100.0381
612.30,100.0397
612.40,100.0443
612.50,100.0473
612.60,100.0473
612.70,100.0427
612.80,100.0381
612.90,100.0366
613.00,100.0366
613.10,100.0397
613.20,100.0458
613.30,100.0488
613.40,100.0488
613.50,100.0488
613.60,100.0458
613.70,100.0412
613.80,100.0412
613.90,100.0381
614.00,100.0351
614.10,100.0351
614.20,100.0320
614.30,100.0259
614.40,100.0214
614.50,100.0122
614.60,100.0015
614.70,99.9908
614.80,99.9863
614.90,99.9832
615.00,99.9847
615.10,99.9908
615.20,99.9954
615.30,99.9985
615.40,100.0046
615.50,100.0076
615.60,100.0092
615.70,100.0107
615.80,100.0107
615.90,100.0107
616.00,100.0092
616.10,100.0076
616.20,100.0092
616.30,100.0076
616.40,100.0076
616.50,100.0092
616.60,100.0137
616.70,100.0168
616.80,100.0183
616.90,100.0259
617.00,100.0275
617.10,100.0275
617.20,100.0244
617.30,100.0229
617.40,100.0183
617.50,100.0168
617.60,100.0183
617.70,100.0244
617.80,100.0275
617.90,100.0305
618.00,100.0305
618.10,100.0290
618.20,100.0244
618.30,100.0183
618.40,100.0107
618.50,100.0046
618.60,100.0015
618.70,99.9969
618.80,99.9969
618.90,99.9985
619.00,99.9969
619.10,99.9954
619.20,99.9969
619.30,99.9969
619.40,99.9954
619.50,99.9939
619.60,99.9969
619.70,99.9954
619.80,99.9954
619.90,99.9954
620.00,99.9969
620.10,99.9985
620.20,100.0000
620.30,100.0031
620.40,100.0046
620.50,100.0046
620.60,100.0031
620.70,100.0061
620.80,100.0061
620.90,100.0031
621.00,99.9985
621.10,99.9924
621.20,99.9878
621.30,99.9908
621.40,99.9924
621.50,99.9939
621.60,99.9985
621.70,100.0031
621.80,100.0031
621.90,100.0000
622.00,99.9969
622.10,99.9939
622.20,99.9908
622.30,99.9893
622.40,99.9893
622.50,99.9878
622.60,99.9893
622.70,99.9908
622.80,99.9878
622.90,99.9832
623.00,99.9863
623.10,99.9847
623.20,99.9817
623.30,99.9832
623.40,99.9908
623.50,99.9908
623.60,99.9924
623.70,99.9985
623.80,100.0015
623.90,100.0015
624.00,100.0031
624.10,100.0015
624.20,100.0031
624.30,100.0031
624.40,100.0046
624.50,100.0031
624.60,100.0031
624.70,99.9985
624.80,99.9924
624.90,99.9908
625.00,99.9893
625.10,99.9878
625.20,99.9817
625.30,99.9802
625.40,99.9771
625.50,99.9771
625.60,99.9725
625.70,99.9725
625.80,99.9725
625.90,99.9741
626.00,99.9756
626.10,99.9756
626.20,99.9832
626.30,99.9908
626.40,99.9908
626.50,99.9908
626.60,99.9817
626.70,99.9725
626.80,99.9649
626.90,99.9664
627.00,99.9649
627.10,99.9710
627.20,99.9786
627.30,99.9817
627.40,99.9802
627.50,99.9771
627.60,99.9786
627.70,99.9802
627.80,99.9832
627.90,99.9847
628.00,99.9893
628.10,99.9954
628.20,99.9969
628.30,99.9924
628.40,99.9893
628.50,99.9863
628.60,99.9847
628.70,99.9817
628.80,99.9847
628.90,99.9893
629.00,99.9939
629.10,99.9969
629.20,100.0000
629.30,100.0000
629.40,99.9954
629.50,99.9939
629.60,99.9939
629.70,99.9908
629.80,99.9908
629.90,99.9924
630.00,99.9924
630.10,99.9832
630.20,99.9802
630.30,99.9802
630.40,99.9771
630.50,99.9741
630.60,99.9786
630.70,99.9832
630.80,99.9817
630.90,99.9741
631.00,99.9725
631.10,99.9710
631.20,99.9741
631.30,99.9725
631.40,99.9741
631.50,99.9786
631.60,99.9786
631.70,99.9817
631.80,99.9832
631.90,99.9863
632.00,99.9878
632.10,99.9939
632.20,99.9924
632.30,99.9908
632.40,99.9878
632.50,99.9832
632.60,99.9756
632.70,99.9680
632.80,99.9649
632.90,99.9649
633.00,99.9680
633.10,99.9725
633.20,99.9786
633.30,99.9832
633.40,99.9847
633.50,99.9878
633.60,99.9893
633.70,99.9878
633.80,99.9847
633.90,99.9893
634.00,99.9893
634.10,99.9908
634.20,99.9924
634.30,99.9924
634.40,99.9893
634.50,99.9817
634.60,99.9771
634.70,99.9695
634.80,99.9634
634.90,99.9603
635.00,99.9649
635.10,99.9649
635.20,99.9619
635.30,99.9619
635.40,99.9664
635.50,99.9695
635.60,99.9680
635.70,99.9710
635.80,99.9756
635.90,99.9802
636.00,99.9863
636.10,99.9908
636.20,99.9954
636.30,99.9985
636.40,100.0015
636.50,100.0000
636.60,99.9969
636.70,99.9924
636.80,99.9847
636.90,99.9771
637.00,99.9695
637.10,99.9680
637.20,99.9710
637.30,99.9741
637.40,99.9771
637.50,99.9771
637.60,99.9756
637.70,99.9710
637.80,99.9664
637.90,99.9619
638.00,99.9603
638.10,99.9588
638.20,99.9603
638.30,99.9649
638.40,99.9634
638.50,99.9619
638.60,99.9588
638.70,99.9573
638.80,99.9542
638.90,99.9527
639.00,99.9557
639.10,99.9649
639.20,99.9680
639.30,99.9710
639.40,99.9725
639.50,99.9771
639.60,99.9771
639.70,99.9771
639.80,99.9771
639.90,99.9771
640.00,99.9756
640.10,99.9756
640.20,99.9771
640.30,99.9771
640.40,99.9786
640.50,99.9786
640.60,99.9802
640.70,99.9771
640.80,99.9771
640.90,99.9710
641.00,99.9710
641.10,99.9664
641.20,99.9649
641.30,99.9619
641.40,99.9603
641.50,99.9588
641.60,99.9588
641.70,99.9588
641.80,99.9603
641.90,99.9557
642.00,99.9557
642.10,99.9512
642.20,99.9527
642.30,99.9527
642.40,99.9588
642.50,99.9649
642.60,99.9725
642.70,99.9756
642.80,99.9741
642.90,99.9725
643.00,99.9756
643.10,99.9817
643.20,99.9786
643.30,99.9741
643.40,99.9710
643.50,99.9649
643.60,99.9557
643.70,99.9512
643.80,99.9542
643.90,99.9557
644.00,99.9573
644.10,99.9573
644.20,99.9557
644.30,99.9512
644.40,99.9466
644.50,99.9405
644.60,99.9359
644.70,99.9313
644.80,99.9329
644.90,99.9359
645.00,99.9374
645.10,99.9390
645.20,99.9435
645.30,99.9451
645.40,99.9481
645.50,99.9496
645.60,99.9481
645.70,99.9481
645.80,99.9512
645.90,99.9557
646.00,99.9603
646.10,99.9619
646.20,99.9634
646.30,99.9603
646.40,99.9557
646.50,99.9527
646.60,99.9466
646.70,99.9420
646.80,99.9420
646.90,99.9435
647.00,99.9405
647.10,99.9405
647.20,99.9420
647.30,99.9420
647.40,99.9405
647.50,99.9374
647.60,99.9374
647.70,99.9359
647.80,99.9405
647.90,99.9390
648.00,99.9405
648.10,99.9420
648.20,99.9420
648.30,99.9420
648.40,99.9405
648.50,99.9390
648.60,99.9390
648.70,99.9405
648.80,99.9435
648.90,99.9435
649.00,99.9466
649.10,99.9512
649.20,99.9512
649.30,99.9527
649.40,99.9573
649.50,99.9603
649.60,99.9619
649.70,99.9619
649.80,99.9634
649.90,99.9603
650.00,99.9573
