"ST1 - RawData"
"Wavelength nm.","T%"
420.00,85.0967
420.10,85.1425
420.20,85.2036
420.30,85.2692
420.40,85.3348
420.50,85.4065
420.60,85.4706
420.70,85.5301
420.80,85.5881
420.90,85.6506
421.00,85.7101
421.10,85.7681
421.20,85.8292
421.30,85.8917
421.40,85.9451
421.50,86.0016
421.60,86.0519
421.70,86.1008
421.80,86.1542
421.90,86.2076
422.00,86.2625
422.10,86.3190
422.20,86.3708
422.30,86.4182
422.40,86.4685
422.50,86.5158
422.60,86.5677
422.70,86.6135
422.80,86.6730
422.90,86.7218
423.00,86.7737
423.10,86.8195
423.20,86.8652
423.30,86.9049
423.40,86.9461
423.50,86.9843
423.60,87.0193
423.70,87.0575
423.80,87.0987
423.90,87.1399
424.00,87.1796
424.10,87.2223
424.20,87.2620
424.30,87.3108
424.40,87.3474
424.50,87.3886
424.60,87.4222
424.70,87.4649
424.80,87.5000
424.90,87.5290
425.00,87.5717
425.10,87.6022
425.20,87.6312
425.30,87.6587
425.40,87.6816
425.50,87.7136
425.60,87.7426
425.70,87.7701
425.80,87.7991
425.90,87.8281
426.00,87.8555
426.10,87.8784
426.20,87.9013
426.30,87.9288
426.40,87.9562
426.50,87.9791
426.60,88.0051
426.70,88.0310
426.80,88.0493
426.90,88.0707
427.00,88.0875
427.10,88.1042
427.20,88.1210
427.30,88.1393
427.40,88.1607
427.50,88.1821
427.60,88.1973
427.70,88.2126
427.80,88.2309
427.90,88.2477
428.00,88.2629
428.10,88.2813
428.20,88.2980
428.30,88.3163
428.40,88.3270
428.50,88.3408
428.60,88.3545
428.70,88.3743
428.80,88.3911
428.90,88.4003
429.00,88.4109
429.10,88.4186
429.20,88.4338
429.30,88.4323
429.40,88.4369
429.50,88.4491
429.60,88.4537
429.70,88.4537
429.80,88.4567
429.90,88.4628
430.00,88.4674
430.10,88.4720
430.20,88.4781
430.30,88.4857
430.40,88.4949
430.50,88.4964
430.60,88.5040
430.70,88.5132
430.80,88.5269
430.90,88.5239
431.00,88.5300
431.10,88.5284
431.20,88.5223
431.30,88.5132
431.40,88.5117
431.50,88.5025
431.60,88.4949
431.70,88.4964
431.80,88.4918
431.90,88.4811
432.00,88.4811
432.10,88.4811
432.20,88.4750
432.30,88.4674
432.40,88.4659
432.50,88.4644
432.60,88.4552
432.70,88.4521
432.80,88.4491
432.90,88.4491
433.00,88.4521
433.10,88.4567
433.20,88.4552
433.30,88.4521
433.40,88.4476
433.50,88.4354
433.60,88.4262
433.70,88.4155
433.80,88.4018
433.90,88.3896
434.00,88.3743
434.10,88.3606
434.20,88.3499
434.30,88.3408
434.40,88.3331
434.50,88.3209
434.60,88.3133
434.70,88.2996
434.80,88.2919
434.90,88.2797
435.00,88.2767
435.10,88.2706
435.20,88.2614
435.30,88.2462
435.40,88.2294
435.50,88.2141
435.60,88.2004
435.70,88.1882
435.80,88.1805
435.90,88.1760
436.00,88.1668
436.10,88.1516
436.20,88.1363
436.30,88.1226
436.40,88.1058
436.50,88.0905
436.60,88.0798
436.70,88.0676
436.80,88.0493
436.90,88.0356
437.00,88.0249
437.10,88.0127
437.20,87.9959
437.30,87.9776
437.40,87.9654
437.50,87.9425
437.60,87.9242
437.70,87.9059
437.80,87.8922
437.90,87.8784
438.00,87.8662
438.10,87.8540
438.20,87.8372
438.30,87.8220
438.40,87.8021
438.50,87.7838
438.60,87.7625
438.70,87.7502
438.80,87.7350
438.90,87.7182
439.00,87.7075
439.10,87.6923
439.20,87.6801
439.30,87.6663
439.40,87.6556
439.50,87.6465
439.60,87.6328
439.70,87.6160
439.80,87.6022
439.90,87.5870
440.00,87.5656
440.10,87.5504
440.20,87.5320
440.30,87.5137
440.40,87.4878
440.50,87.4710
440.60,87.4542
440.70,87.4344
440.80,87.4146
440.90,87.3947
441.00,87.3779
441.10,87.3566
441.20,87.3337
441.30,87.3169
441.40,87.3032
441.50,87.2894
441.60,87.2742
441.70,87.2543
441.80,87.2421
441.90,87.2284
442.00,87.2070
442.10,87.1902
442.20,87.1796
442.30,87.1658
442.40,87.1475
442.50,87.1384
442.60,87.1262
442.70,87.1094
442.80,87.0956
442.90,87.0819
443.00,87.0697
443.10,87.0560
443.20,87.0438
443.30,87.0300
443.40,87.0132
443.50,86.9995
443.60,86.9812
443.70,86.9614
443.80,86.9431
443.90,86.9278
444.00,86.9034
444.10,86.8881
444.20,86.8820
444.30,86.8698
444.40,86.8607
444.50,86.8469
444.60,86.8378
444.70,86.8195
444.80,86.8027
444.90,86.7813
445.00,86.7630
445.10,86.7508
445.20,86.7371
445.30,86.7264
445.40,86.7218
445.50,86.7111
445.60,86.6974
445.70,86.6791
445.80,86.6669
445.90,86.6470
446.00,86.6272
446.10,86.6135
446.20,86.6028
446.30,86.5891
446.40,86.5784
446.50,86.5768
446.60,86.5662
446.70,86.5570
446.80,86.5494
446.90,86.5417
447.00,86.5311
447.10,86.5219
447.20,86.5112
447.30,86.5005
447.40,86.4899
447.50,86.4777
447.60,86.4639
447.70,86.4502
447.80,86.4349
447.90,86.4182
448.00,86.4014
448.10,86.3815
448.20,86.3678
448.30,86.3602
448.40,86.3495
448.50,86.3388
448.60,86.3342
448.70,86.3205
448.80,86.3113
448.90,86.3007
449.00,86.2930
449.10,86.2808
449.20,86.2762
449.30,86.2701
449.40,86.2640
449.50,86.2564
449.60,86.2518
449.70,86.2473
449.80,86.2381
449.90,86.2274
450.00,86.2167
450.10,86.2076
450.20,86.2000
450.30,86.1893
450.40,86.1816
450.50,86.1755
450.60,86.1740
450.70,86.1710
450.80,86.1649
450.90,86.1603
451.00,86.1557
451.10,86.1481
451.20,86.1374
451.30,86.1282
451.40,86.1252
451.50,86.1206
451.60,86.1160
451.70,86.1130
451.80,86.1099
451.90,86.1053
452.00,86.0992
452.10,86.0931
452.20,86.0886
452.30,86.0825
452.40,86.0809
452.50,86.0779
452.60,86.0703
452.70,86.0641
452.80,86.0596
452.90,86.0565
453.00,86.0504
453.10,86.0443
453.20,86.0474
453.30,86.0489
453.40,86.0428
453.50,86.0428
453.60,86.0397
453.70,86.0367
453.80,86.0291
453.90,86.0245
454.00,86.0168
454.10,86.0138
454.20,86.0138
454.30,86.0153
454.40,86.0184
454.50,86.0184
454.60,86.0184
454.70,86.0153
454.80,86.0153
454.90,86.0123
455.00,86.0123
455.10,86.0153
455.20,86.0138
455.30,86.0107
455.40,86.0107
455.50,86.0107
455.60,86.0138
455.70,86.0138
455.80,86.0214
455.90,86.0229
456.00,86.0214
456.10,86.0229
456.20,86.0291
456.30,86.0275
456.40,86.0306
456.50,86.0336
456.60,86.0352
456.70,86.0336
456.80,86.0306
456.90,86.0321
457.00,86.0352
457.10,86.0428
457.20,86.0458
457.30,86.0519
457.40,86.0611
457.50,86.0641
457.60,86.0657
457.70,86.0703
457.80,86.0748
457.90,86.0794
458.00,86.0855
458.10,86.0931
458.20,86.0992
458.30,86.1023
458.40,86.1069
458.50,86.1069
458.60,86.1115
458.70,86.1145
458.80,86.1191
458.90,86.1267
459.00,86.1313
459.10,86.1328
459.20,86.1328
459.30,86.1389
459.40,86.1420
459.50,86.1481
459.60,86.1511
459.70,86.1542
459.80,86.1588
459.90,86.1633
460.00,86.1664
460.10,86.1755
460.20,86.1847
460.30,86.1938
460.40,86.2015
460.50,86.2122
460.60,86.2244
460.70,86.2381
460.80,86.2503
460.90,86.2640
461.00,86.2778
461.10,86.2930
461.20,86.2961
461.30,86.3022
461.40,86.3098
461.50,86.3159
461.60,86.3266
461.70,86.3419
461.80,86.3510
461.90,86.3602
462.00,86.3708
462.10,86.3785
462.20,86.3831
462.30,86.3831
462.40,86.3953
462.50,86.4044
462.60,86.4151
462.70,86.4182
462.80,86.4273
462.90,86.4349
463.00,86.4456
463.10,86.4502
463.20,86.4594
463.30,86.4700
463.40,86.4746
463.50,86.4777
463.60,86.4807
463.70,86.4883
463.80,86.4944
463.90,86.5005
464.00,86.5143
464.10,86.5250
464.20,86.5341
464.30,86.5494
464.40,86.5616
464.50,86.5723
464.60,86.5875
464.70,86.6028
464.80,86.6226
464.90,86.6409
465.00,86.6608
465.10,86.6760
465.20,86.6928
465.30,86.7081
465.40,86.7203
465.50,86.7264
465.60,86.7310
465.70,86.7401
465.80,86.7462
465.90,86.7554
466.00,86.7737
466.10,86.7920
466.20,86.8073
466.30,86.8240
466.40,86.8378
466.50,86.8500
466.60,86.8561
466.70,86.8622
466.80,86.8683
466.90,86.8759
467.00,86.8835
467.10,86.8866
467.20,86.8988
467.30,86.9095
467.40,86.9217
467.50,86.9308
467.60,86.9461
467.70,86.9568
467.80,86.9659
467.90,86.9766
468.00,86.9919
468.10,87.0026
468.20,87.0132
468.30,87.0239
468.40,87.0346
468.50,87.0483
468.60,87.0605
468.70,87.0743
468.80,87.0895
468.90,87.1094
469.00,87.1231
469.10,87.1384
469.20,87.1552
469.30,87.1689
469.40,87.1826
469.50,87.1964
469.60,87.2131
469.70,87.2269
469.80,87.2437
469.90,87.2574
470.00,87.2681
470.10,87.2818
470.20,87.2955
470.30,87.3047
470.40,87.3215
470.50,87.3383
470.60,87.3520
470.70,87.3627
470.80,87.3795
470.90,87.3932
471.00,87.3993
471.10,87.4054
471.20,87.4146
471.30,87.4298
471.40,87.4405
471.50,87.4573
471.60,87.4771
471.70,87.4969
471.80,87.5168
471.90,87.5290
472.00,87.5473
472.10,87.5610
472.20,87.5732
472.30,87.5839
472.40,87.6038
472.50,87.6190
472.60,87.6404
472.70,87.6587
472.80,87.6770
472.90,87.6953
473.00,87.7060
473.10,87.7136
473.20,87.7258
473.30,87.7365
473.40,87.7441
473.50,87.7548
473.60,87.7716
473.70,87.7853
473.80,87.8021
473.90,87.8250
474.00,87.8448
474.10,87.8647
474.20,87.8815
474.30,87.8952
474.40,87.9105
474.50,87.9272
474.60,87.9425
474.70,87.9578
474.80,87.9745
474.90,87.9944
475.00,88.0157
475.10,88.0341
475.20,88.0493
475.30,88.0722
475.40,88.0936
475.50,88.1073
475.60,88.1226
475.70,88.1393
475.80,88.1607
475.90,88.1744
476.00,88.1927
476.10,88.2095
476.20,88.2263
476.30,88.2416
476.40,88.2538
476.50,88.2675
476.60,88.2874
476.70,88.3041
476.80,88.3301
476.90,88.3469
477.00,88.3636
477.10,88.3759
477.20,88.3881
477.30,88.3972
477.40,88.4064
477.50,88.4216
477.60,88.4369
477.70,88.4552
477.80,88.4735
477.90,88.4995
478.00,88.5178
478.10,88.5391
478.20,88.5605
478.30,88.5849
478.40,88.6017
478.50,88.6200
478.60,88.6368
478.70,88.6520
478.80,88.6658
478.90,88.6826
479.00,88.6978
479.10,88.7161
479.20,88.7344
479.30,88.7497
479.40,88.7604
479.50,88.7711
479.60,88.7863
479.70,88.7985
479.80,88.8153
479.90,88.8321
480.00,88.8565
480.10,88.8779
480.20,88.8992
480.30,88.9191
480.40,88.9359
480.50,88.9557
480.60,88.9725
480.70,88.9862
480.80,89.0030
480.90,89.0228
481.00,89.0411
481.10,89.0549
481.20,89.0747
481.30,89.0991
481.40,89.1205
481.50,89.1373
481.60,89.1602
481.70,89.1785
481.80,89.1953
481.90,89.2105
482.00,89.2288
482.10,89.2456
482.20,89.2624
482.30,89.2822
482.40,89.3005
482.50,89.3173
482.60,89.3372
482.70,89.3616
482.80,89.3829
482.90,89.4043
483.00,89.4257
483.10,89.4440
483.20,89.4577
483.30,89.4745
483.40,89.4852
483.50,89.5050
483.60,89.5233
483.70,89.5447
483.80,89.5676
483.90,89.5889
484.00,89.6149
484.10,89.6393
484.20,89.6637
484.30,89.6851
484.40,89.7079
484.50,89.7278
484.60,89.7446
484.70,89.7629
484.80,89.7842
484.90,89.8041
485.00,89.8239
485.10,89.8422
485.20,89.8605
485.30,89.8773
485.40,89.8911
485.50,89.9078
485.60,89.9261
485.70,89.9475
485.80,89.9704
485.90,89.9963
486.00,90.0192
486.10,90.0375
486.20,90.0558
486.30,90.0726
486.40,90.0925
486.50,90.1138
486.60,90.1352
486.70,90.1581
486.80,90.1764
486.90,90.1932
487.00,90.2054
487.10,90.2222
487.20,90.2405
487.30,90.2573
487.40,90.2756
487.50,90.2985
487.60,90.3183
487.70,90.3366
487.80,90.3549
487.90,90.3809
488.00,90.4022
488.10,90.4236
488.20,90.4480
488.30,90.4709
488.40,90.4907
488.50,90.5075
488.60,90.5273
488.70,90.5441
488.80,90.5609
488.90,90.5823
489.00,90.6052
489.10,90.6265
489.20,90.6418
489.30,90.6616
489.40,90.6815
489.50,90.7028
489.60,90.7211
489.70,90.7364
489.80,90.7562
489.90,90.7745
490.00,90.7913
490.10,90.8096
490.20,90.8310
490.30,90.8554
490.40,90.8752
490.50,90.8951
490.60,90.9149
490.70,90.9363
490.80,90.9592
490.90,90.9836
491.00,91.0065
491.10,91.0294
491.20,91.0538
491.30,91.0736
491.40,91.0950
491.50,91.1133
491.60,91.1362
491.70,91.1560
491.80,91.1774
491.90,91.1987
492.00,91.2170
492.10,91.2369
492.20,91.2598
492.30,91.2766
492.40,91.2994
492.50,91.3208
492.60,91.3391
492.70,91.3559
492.80,91.3757
492.90,91.3956
493.00,91.4108
493.10,91.4322
493.20,91.4520
493.30,91.4703
493.40,91.4856
493.50,91.5039
493.60,91.5329
493.70,91.5573
493.80,91.5894
493.90,91.6153
494.00,91.6412
494.10,91.6626
494.20,91.6824
494.30,91.7023
494.40,91.7191
494.50,91.7389
494.60,91.7557
494.70,91.7709
494.80,91.7847
494.90,91.8045
495.00,91.8289
495.10,91.8488
495.20,91.8716
495.30,91.8976
495.40,91.9205
495.50,91.9388
495.60,91.9601
495.70,91.9846
495.80,92.0090
495.90,92.0319
496.00,92.0578
496.10,92.0776
496.20,92.0959
496.30,92.1082
496.40,92.1280
496.50,92.1448
496.60,92.1616
496.70,92.1829
496.80,92.2089
496.90,92.2348
497.00,92.2592
497.10,92.2852
497.20,92.3065
497.30,92.3264
497.40,92.3477
497.50,92.3660
497.60,92.3965
497.70,92.4225
497.80,92.4484
497.90,92.4698
498.00,92.4911
498.10,92.5064
498.20,92.5171
498.30,92.5354
498.40,92.5583
498.50,92.5781
498.60,92.5919
498.70,92.6086
498.80,92.6254
498.90,92.6407
499.00,92.6605
499.10,92.6819
499.20,92.7078
499.30,92.7322
499.40,92.7521
499.50,92.7765
499.60,92.7963
499.70,92.8223
499.80,92.8452
499.90,92.8680
500.00,92.8940
500.10,92.9214
500.20,92.9382
500.30,92.9565
500.40,92.9718
500.50,92.9871
500.60,93.0023
500.70,93.0115
500.80,93.0298
500.90,93.0481
501.00,93.0664
501.10,93.0908
501.20,93.1122
501.30,93.1335
501.40,93.1488
501.50,93.1717
501.60,93.1931
501.70,93.2068
501.80,93.2343
501.90,93.2617
502.00,93.2877
502.10,93.3121
502.20,93.3395
502.30,93.3578
502.40,93.3762
502.50,93.3990
502.60,93.4204
502.70,93.4341
502.80,93.4540
502.90,93.4738
503.00,93.4921
503.10,93.5089
503.20,93.5303
503.30,93.5547
503.40,93.5730
503.50,93.5913
503.60,93.6111
503.70,93.6295
503.80,93.6447
503.90,93.6630
504.00,93.6844
504.10,93.6981
504.20,93.7119
504.30,93.7302
504.40,93.7454
504.50,93.7592
504.60,93.7744
504.70,93.7958
504.80,93.8126
504.90,93.8293
505.00,93.8477
505.10,93.8690
505.20,93.8904
505.30,93.9056
505.40,93.9270
505.50,93.9468
505.60,93.9636
505.70,93.9804
505.80,94.0002
505.90,94.0247
506.00,94.0460
506.10,94.0613
506.20,94.0720
506.30,94.0887
506.40,94.1071
506.50,94.1193
506.60,94.1391
506.70,94.1696
506.80,94.1910
506.90,94.2108
507.00,94.2337
507.10,94.2551
507.20,94.2749
507.30,94.2978
507.40,94.3207
507.50,94.3405
507.60,94.3619
507.70,94.3832
507.80,94.4092
507.90,94.4260
508.00,94.4473
508.10,94.4687
508.20,94.4870
508.30,94.5053
508.40,94.5221
508.50,94.5404
508.60,94.5602
508.70,94.5724
508.80,94.5862
508.90,94.6030
509.00,94.6198
509.10,94.6365
509.20,94.6594
509.30,94.6793
509.40,94.7006
509.50,94.7250
509.60,94.7403
509.70,94.7556
509.80,94.7723
509.90,94.7906
510.00,94.8074
510.10,94.8257
510.20,94.8486
510.30,94.8730
510.40,94.8975
510.50,94.9142
510.60,94.9356
510.70,94.9524
510.80,94.9661
510.90,94.9768
511.00,94.9890
511.10,95.0027
511.20,95.0134
511.30,95.0317
511.40,95.0516
511.50,95.0699
511.60,95.0912
511.70,95.1096
511.80,95.1309
511.90,95.1492
512.00,95.1691
512.10,95.1843
512.20,95.2057
512.30,95.2225
512.40,95.2362
512.50,95.2545
512.60,95.2744
512.70,95.2927
512.80,95.3094
512.90,95.3308
513.00,95.3476
513.10,95.3644
513.20,95.3766
513.30,95.3888
513.40,95.3995
513.50,95.4132
513.60,95.4285
513.70,95.4453
513.80,95.4636
513.90,95.4803
514.00,95.5032
514.10,95.5200
514.20,95.5338
514.30,95.5505
514.40,95.5765
514.50,95.5978
514.60,95.6223
514.70,95.6421
514.80,95.6635
514.90,95.6787
515.00,95.6924
515.10,95.7092
515.20,95.7199
515.30,95.7352
515.40,95.7504
515.50,95.7657
515.60,95.7733
515.70,95.7840
515.80,95.8008
515.90,95.8176
516.00,95.8298
516.10,95.8481
516.20,95.8694
516.30,95.8832
516.40,95.9000
516.50,95.9183
516.60,95.9366
516.70,95.9549
516.80,95.9778
516.90,95.9946
517.00,96.0129
517.10,96.0312
517.20,96.0526
517.30,96.0693
517.40,96.0861
517.50,96.1044
517.60,96.1288
517.70,96.1472
517.80,96.1609
517.90,96.1807
518.00,96.1960
518.10,96.2051
518.20,96.2143
518.30,96.2280
518.40,96.2387
518.50,96.2509
518.60,96.2677
518.70,96.2845
518.80,96.2952
518.90,96.3074
519.00,96.3196
519.10,96.3364
519.20,96.3486
519.30,96.3654
519.40,96.3867
519.50,96.4066
519.60,96.4218
519.70,96.4386
519.80,96.4584
519.90,96.4767
520.00,96.4890
520.10,96.4981
520.20,96.5149
520.30,96.5302
520.40,96.5408
520.50,96.5546
520.60,96.5744
520.70,96.5927
520.80,96.6080
520.90,96.6217
521.00,96.6400
521.10,96.6522
521.20,96.6660
521.30,96.6782
521.40,96.6965
521.50,96.7102
521.60,96.7255
521.70,96.7407
521.80,96.7529
521.90,96.7682
522.00,96.7758
522.10,96.7865
522.20,96.8002
522.30,96.8170
522.40,96.8277
522.50,96.8414
522.60,96.8567
522.70,96.8719
522.80,96.8872
522.90,96.9025
523.00,96.9101
523.10,96.9238
523.20,96.9376
523.30,96.9467
523.40,96.9543
523.50,96.9681
523.60,96.9833
523.70,96.9894
523.80,97.0016
523.90,97.0108
524.00,97.0215
524.10,97.0352
524.20,97.0505
524.30,97.0657
524.40,97.0810
524.50,97.1008
524.60,97.1146
524.70,97.1298
524.80,97.1512
524.90,97.1695
525.00,97.1817
525.10,97.1909
525.20,97.2015
525.30,97.2137
525.40,97.2229
525.50,97.2336
525.60,97.2519
525.70,97.2702
525.80,97.2885
525.90,97.3038
526.00,97.3221
526.10,97.3373
526.20,97.3495
526.30,97.3602
526.40,97.3724
526.50,97.3831
526.60,97.3969
526.70,97.4152
526.80,97.4289
526.90,97.4442
527.00,97.4640
527.10,97.4762
527.20,97.4869
527.30,97.4991
527.40,97.5128
527.50,97.5204
527.60,97.5342
527.70,97.5449
527.80,97.5555
527.90,97.5662
528.00,97.5754
528.10,97.5830
528.20,97.5922
528.30,97.6089
528.40,97.6196
528.50,97.6364
528.60,97.6578
528.70,97.6730
528.80,97.6868
528.90,97.7020
529.00,97.7188
529.10,97.7325
529.20,97.7386
529.30,97.7493
529.40,97.7631
529.50,97.7707
529.60,97.7798
529.70,97.7921
529.80,97.8119
529.90,97.8241
530.00,97.8333
530.10,97.8424
530.20,97.8516
530.30,97.8607
530.40,97.8699
530.50,97.8867
530.60,97.9019
530.70,97.9111
530.80,97.9172
530.90,97.9248
531.00,97.9309
531.10,97.9416
531.20,97.9538
531.30,97.9691
531.40,97.9874
531.50,98.0026
531.60,98.0148
531.70,98.0240
531.80,98.0331
531.90,98.0499
532.00,98.0576
532.10,98.0652
532.20,98.0759
532.30,98.0881
532.40,98.1064
532.50,98.1201
532.60,98.1354
532.70,98.1552
532.80,98.1705
532.90,98.1796
533.00,98.1873
533.10,98.1949
533.20,98.2040
533.30,98.2071
533.40,98.2147
533.50,98.2193
533.60,98.2178
533.70,98.2193
533.80,98.2315
533.90,98.2391
534.00,98.2422
534.10,98.2544
534.20,98.2727
534.30,98.2880
534.40,98.2986
534.50,98.3185
534.60,98.3353
534.70,98.3505
534.80,98.3597
534.90,98.3704
535.00,98.3826
535.10,98.3994
535.20,98.4192
535.30,98.4390
535.40,98.4619
535.50,98.4802
535.60,98.4955
535.70,98.5016
535.80,98.5062
535.90,98.5184
536.00,98.5260
536.10,98.5352
536.20,98.5413
536.30,98.5580
536.40,98.5596
536.50,98.5641
536.60,98.5687
536.70,98.5657
536.80,98.5672
536.90,98.5703
537.00,98.5718
537.10,98.5703
537.20,98.5748
537.30,98.5855
537.40,98.5931
537.50,98.6038
537.60,98.6145
537.70,98.6267
537.80,98.6328
537.90,98.6359
538.00,98.6374
538.10,98.6420
538.20,98.6496
538.30,98.6603
538.40,98.6771
538.50,98.6969
538.60,98.7137
538.70,98.7244
538.80,98.7289
538.90,98.7335
539.00,98.7350
539.10,98.7442
539.20,98.7564
539.30,98.7747
539.40,98.7946
539.50,98.8113
539.60,98.8235
539.70,98.8358
539.80,98.8388
539.90,98.8434
540.00,98.8510
540.10,98.8571
540.20,98.8541
540.30,98.8556
540.40,98.8632
540.50,98.8693
540.60,98.8785
540.70,98.8861
540.80,98.8968
540.90,98.9075
541.00,98.9166
541.10,98.9258
541.20,98.9380
541.30,98.9502
541.40,98.9624
541.50,98.9731
541.60,98.9777
541.70,98.9822
541.80,98.9868
541.90,98.9960
542.00,99.0021
542.10,99.0112
542.20,99.0204
542.30,99.0356
542.40,99.0433
542.50,99.0494
542.60,99.0555
542.70,99.0677
542.80,99.0753
542.90,99.0845
543.00,99.1013
543.10,99.1165
543.20,99.1302
543.30,99.1348
543.40,99.1409
543.50,99.1470
543.60,99.1531
543.70,99.1592
543.80,99.1714
543.90,99.1791
544.00,99.1791
544.10,99.1806
544.20,99.1867
544.30,99.1898
544.40,99.1913
544.50,99.2020
544.60,99.2157
544.70,99.2249
544.80,99.2325
544.90,99.2386
545.00,99.2432
545.10,99.2523
545.20,99.2615
545.30,99.2676
545.40,99.2737
545.50,99.2859
545.60,99.2981
545.70,99.3042
545.80,99.3118
545.90,99.3256
546.00,99.3378
546.10,99.3515
546.20,99.3622
546.30,99.3713
546.40,99.3744
546.50,99.3744
546.60,99.3790
546.70,99.3805
546.80,99.3774
546.90,99.3820
547.00,99.3912
547.10,99.3958
547.20,99.4049
547.30,99.4125
547.40,99.4232
547.50,99.4293
547.60,99.4400
547.70,99.4476
547.80,99.4583
547.90,99.4736
548.00,99.4888
548.10,99.4980
548.20,99.5026
548.30,99.5071
548.40,99.5041
548.50,99.5010
548.60,99.5087
548.70,99.5132
548.80,99.5163
548.90,99.5193
549.00,99.5255
549.10,99.5331
549.20,99.5392
549.30,99.5422
549.40,99.5544
549.50,99.5590
549.60,99.5590
549.70,99.5560
549.80,99.5605
549.90,99.5651
550.00,99.5697
550.10,99.5773
550.20,99.5834
550.30,99.5865
550.40,99.5880
550.50,99.5911
550.60,99.5956
550.70,99.5956
550.80,99.5956
550.90,99.5987
551.00,99.6094
551.10,99.6185
551.20,99.6292
551.30,99.6353
551.40,99.6460
551.50,99.6506
551.60,99.6506
551.70,99.6552
551.80,99.6628
551.90,99.6704
552.00,99.6826
552.10,99.6933
552.20,99.7070
552.30,99.7177
552.40,99.7269
552.50,99.7345
552.60,99.7452
552.70,99.7543
552.80,99.7589
552.90,99.7650
553.00,99.7726
553.10,99.7772
553.20,99.7787
553.30,99.7803
553.40,99.7849
553.50,99.7925
553.60,99.7940
553.70,99.7910
553.80,99.7910
553.90,99.7925
554.00,99.7910
554.10,99.7925
554.20,99.8001
554.30,99.8077
554.40,99.8123
554.50,99.8199
554.60,99.8276
554.70,99.8352
554.80,99.8398
554.90,99.8444
555.00,99.8520
555.10,99.8596
555.20,99.8657
555.30,99.8718
555.40,99.8734
555.50,99.8795
555.60,99.8825
555.70,99.8840
555.80,99.8901
555.90,99.8917
556.00,99.8962
556.10,99.9008
556.20,99.9069
556.30,99.9069
556.40,99.9115
556.50,99.9222
556.60,99.9329
556.70,99.9405
556.80,99.9481
556.90,99.9573
557.00,99.9557
557.10,99.9542
557.20,99.9496
557.30,99.9512
557.40,99.9512
557.50,99.9512
557.60,99.9557
557.70,99.9619
557.80,99.9695
557.90,99.9756
558.00,99.9817
558.10,99.9893
558.20,99.9924
558.30,99.9969
558.40,100.0000
558.50,100.0061
558.60,100.0092
558.70,100.0137
558.80,100.0183
558.90,100.0168
559.00,100.0183
559.10,100.0198
559.20,100.0153
559.30,100.0137
559.40,100.0198
559.50,100.0305
559.60,100.0351
559.70,100.0443
559.80,100.0580
559.90,100.0626
560.00,100.0656
560.10,100.0671
560.20,100.0793
560.30,100.0839
560.40,100.0839
560.50,100.0885
560.60,100.0885
560.70,100.0900
560.80,100.0870
560.90,100.0961
561.00,100.1007
561.10,100.1068
561.20,100.1129
561.30,100.1144
561.40,100.1205
561.50,100.1282
561.60,100.1328
561.70,100.1312
561.80,100.1312
561.90,100.1358
562.00,100.1328
562.10,100.1343
562.20,100.1419
562.30,100.1495
562.40,100.1556
562.50,100.1617
562.60,100.1633
562.70,100.1678
562.80,100.1678
562.90,100.1724
563.00,100.1709
563.10,100.1740
563.20,100.1740
563.30,100.1740
563.40,100.1724
563.50,100.1724
563.60,100.1770
563.70,100.1770
563.80,100.1816
563.90,100.1862
564.00,100.1892
564.10,100.1877
564.20,100.1862
564.30,100.1892
564.40,100.1892
564.50,100.1862
564.60,100.1862
564.70,100.1862
564.80,100.1892
564.90,100.1907
565.00,100.1953
565.10,100.2029
565.20,100.1999
565.30,100.2029
565.40,100.2060
565.50,100.2136
565.60,100.2167
565.70,100.2228
565.80,100.2319
565.90,100.2365
566.00,100.2350
566.10,100.2365
566.20,100.2396
566.30,100.2441
566.40,100.2487
566.50,100.2502
566.60,100.2502
566.70,100.2502
566.80,100.2533
566.90,100.2579
567.00,100.2670
567.10,100.2716
567.20,100.2762
567.30,100.2808
567.40,100.2853
567.50,100.2808
567.60,100.2823
567.70,100.2869
567.80,100.2930
567.90,100.2945
568.00,100.2960
568.10,100.3006
568.20,100.3036
568.30,100.3067
568.40,100.3098
568.50,100.3159
568.60,100.3235
568.70,100.3281
568.80,100.3265
568.90,100.3311
569.00,100.3357
569.10,100.3403
569.20,100.3418
569.30,100.3433
569.40,100.3433
569.50,100.3357
569.60,100.3326
569.70,100.3296
569.80,100.3311
569.90,100.3342
570.00,100.3418
570.10,100.3464
570.20,100.3433
570.30,100.3479
570.40,100.3525
570.50,100.3540
570.60,100.3540
570.70,100.3601
570.80,100.3616
570.90,100.3632
571.00,100.3647
571.10,100.3632
571.20,100.3632
571.30,100.3616
571.40,100.3601
571.50,100.3616
571.60,100.3601
571.70,100.3586
571.80,100.3586
571.90,100.3571
572.00,100.3555
572.10,100.3525
572.20,100.3555
572.30,100.3616
572.40,100.3693
572.50,100.3738
572.60,100.3754
572.70,100.3799
572.80,100.3784
572.90,100.3799
573.00,100.3799
573.10,100.3815
573.20,100.3815
573.30,100.3799
573.40,100.3815
573.50,100.3769
573.60,100.3738
573.70,100.3708
573.80,100.3769
573.90,100.3799
574.00,100.3815
574.10,100.3860
574.20,100.3891
574.30,100.3983
574.40,100.3983
574.50,100.4028
574.60,100.4105
574.70,100.4166
574.80,100.4181
574.90,100.4196
575.00,100.4166
575.10,100.4150
575.20,100.4166
575.30,100.4181
575.40,100.4227
575.50,100.4318
575.60,100.4425
575.70,100.4456
575.80,100.4486
575.90,100.4486
576.00,100.4486
576.10,100.4410
576.20,100.4349
576.30,100.4349
576.40,100.4333
576.50,100.4257
576.60,100.4227
576.70,100.4227
576.80,100.4227
576.90,100.4211
577.00,100.4211
577.10,100.4242
577.20,100.4272
577.30,100.4288
577.40,100.4288
577.50,100.4303
577.60,100.4288
577.70,100.4288
577.80,100.4318
577.90,100.4333
578.00,100.4379
578.10,100.4425
578.20,100.4425
578.30,100.4471
578.40,100.4486
578.50,100.4501
578.60,100.4501
578.70,100.4562
578.80,100.4562
578.90,100.4532
579.00,100.4547
579.10,100.4578
579.20,100.4593
579.30,100.4608
579.40,100.4623
579.50,100.4684
579.60,100.4684
579.70,100.4715
579.80,100.4730
579.90,100.4761
580.00,100.4791
580.10,100.4822
580.20,100.4837
580.30,100.4822
580.40,100.4852
580.50,100.4868
580.60,100.4898
580.70,100.4913
580.80,100.4913
580.90,100.4898
581.00,100.4883
581.10,100.4883
581.20,100.4868
581.30,100.4852
581.40,100.4852
581.50,100.4837
581.60,100.4776
581.70,100.4745
581.80,100.4745
581.90,100.4745
582.00,100.4761
582.10,100.4791
582.20,100.4822
582.30,100.4837
582.40,100.4822
582.50,100.4807
582.60,100.4852
582.70,100.4913
582.80,100.4974
582.90,100.5035
583.00,100.5096
583.10,100.5142
583.20,100.5127
583.30,100.5157
583.40,100.5173
583.50,100.5234
583.60,100.5280
583.70,100.5341
583.80,100.5341
583.90,100.5325
584.00,100.5295
584.10,100.5264
584.20,100.5234
584.30,100.5203
584.40,100.5157
584.50,100.5157
584.60,100.5142
584.70,100.5127
584.80,100.5066
584.90,100.5035
585.00,100.5005
585.10,100.4959
585.20,100.4913
585.30,100.4852
585.40,100.4822
585.50,100.4807
585.60,100.4822
585.70,100.4761
585.80,100.4761
585.90,100.4761
586.00,100.4745
586.10,100.4730
586.20,100.4761
586.30,100.4791
586.40,100.4852
586.50,100.4929
586.60,100.4974
586.70,100.4990
586.80,100.5035
586.90,100.5005
587.00,100.4929
587.10,100.4929
587.20,100.4929
587.30,100.4929
587.40,100.4929
587.50,100.4959
587.60,100.4974
587.70,100.5035
587.80,100.5081
587.90,100.5127
588.00,100.5142
588.10,100.5157
588.20,100.5173
588.30,100.5127
588.40,100.5142
588.50,100.5096
588.60,100.5081
588.70,100.5127
588.80,100.5173
588.90,100.5157
589.00,100.5173
589.10,100.5173
589.20,100.5127
589.30,100.5096
589.40,100.5112
589.50,100.5066
589.60,100.5066
589.70,100.5066
589.80,100.5096
589.90,100.5066
590.00,100.5020
590.10,100.4990
590.20,100.4974
590.30,100.4974
590.40,100.4929
590.50,100.4898
590.60,100.4913
590.70,100.4929
590.80,100.4898
590.90,100.4898
591.00,100.4913
591.10,100.4898
591.20,100.4913
591.30,100.4944
591.40,100.4959
591.50,100.4974
591.60,100.4959
591.70,100.5005
591.80,100.5020
591.90,100.5066
592.00,100.5096
592.10,100.5066
592.20,100.5066
592.30,100.5066
592.40,100.5020
592.50,100.4974
592.60,100.5005
592.70,100.5051
592.80,100.5051
592.90,100.5081
593.00,100.5157
593.10,100.5188
593.20,100.5188
593.30,100.5188
593.40,100.5219
593.50,100.5203
593.60,100.5173
593.70,100.5173
593.80,100.5173
593.90,100.5157
594.00,100.5127
594.10,100.5096
594.20,100.5096
594.30,100.5066
594.40,100.5051
594.50,100.4990
594.60,100.4959
594.70,100.4944
594.80,100.4959
594.90,100.4974
595.00,100.5035
595.10,100.5066
595.20,100.5096
595.30,100.5081
595.40,100.5081
595.50,100.5112
595.60,100.5096
595.70,100.5051
595.80,100.5051
595.90,100.5081
596.00,100.5051
596.10,100.5035
596.20,100.5096
596.30,100.5112
596.40,100.5081
596.50,100.5081
596.60,100.5096
596.70,100.5096
596.80,100.5112
596.90,100.5173
597.00,100.5203
597.10,100.5219
597.20,100.5234
597.30,100.5219
597.40,100.5234
597.50,100.5264
597.60,100.5295
597.70,100.5295
597.80,100.5310
597.90,100.5310
598.00,100.5280
598.10,100.5249
598.20,100.5264
598.30,100.5295
598.40,100.5280
598.50,100.5264
598.60,100.5234
598.70,100.5234
598.80,100.5203
598.90,100.5173
599.00,100.5157
599.10,100.5096
599.20,100.5066
599.30,100.5005
599.40,100.4959
599.50,100.4959
599.60,100.4959
599.70,100.5005
599.80,100.4974
599.90,100.4959
600.00,100.5005
600.10,100.5005
600.20,100.5005
600.30,100.5020
600.40,100.5066
600.50,100.5112
600.60,100.5081
600.70,100.5127
600.80,100.5142
600.90,100.5127
601.00,100.5096
601.10,100.5051
601.20,100.5051
601.30,100.5081
601.40,100.5112
601.50,100.5127
601.60,100.5142
601.70,100.5157
601.80,100.5142
601.90,100.5096
602.00,100.5066
602.10,100.5051
602.20,100.5035
602.30,100.5005
602.40,100.5035
602.50,100.5096
602.60,100.5096
602.70,100.5096
602.80,100.5173
602.90,100.5188
603.00,100.5142
603.10,100.5096
603.20,100.5112
603.30,100.5081
603.40,100.5020
603.50,100.5020
603.60,100.5005
603.70,100.4990
603.80,100.5035
603.90,100.5051
604.00,100.5112
604.10,100.5081
604.20,100.5142
604.30,100.5188
604.40,100.5188
604.50,100.5142
604.60,100.5142
604.70,100.5112
604.80,100.5051
604.90,100.5020
605.00,100.4959
605.10,100.4944
605.20,100.4913
605.30,100.4944
605.40,100.4913
605.50,100.4929
605.60,100.4990
605.70,100.5005
605.80,100.5051
605.90,100.5081
606.00,100.5127
606.10,100.5173
606.20,100.5249
606.30,100.5234
606.40,100.5188
606.50,100.5142
606.60,100.5112
606.70,100.5066
606.80,100.5081
606.90,100.5112
607.00,100.5157
607.10,100.5157
607.20,100.5112
607.30,100.5112
607.40,100.5066
607.50,100.5035
607.60,100.4974
607.70,100.5020
607.80,100.5005
607.90,100.4990
608.00,100.4974
608.10,100.5005
608.20,100.5005
608.30,100.5020
608.40,100.5066
608.50,100.5051
608.60,100.5066
608.70,100.5035
608.80,100.5005
608.90,100.5005
609.00,100.5005
609.10,100.5035
609.20,100.5081
609.30,100.5157
609.40,100.5203
609.50,100.5234
609.60,100.5249
609.70,100.5264
609.80,100.5264
609.90,100.5249
610.00,100.5234
610.10,100.5234
610.20,100.5219
610.30,100.5219
610.40,100.5188
610.50,100.5157
610.60,100.5096
610.70,100.5066
610.80,100.5005
610.90,100.4959
611.00,100.4944
611.10,100.4959
611.20,100.4929
611.30,100.4959
611.40,100.4959
611.50,100.5005
611.60,100.5035
611.70,100.5051
611.80,100.5081
611.90,100.5127
612.00,100.5142
612.10,100.5157
612.20,100.5188
612.30,100.5249
612.40,100.5264
612.50,100.5234
612.60,100.5249
612.70,100.5234
612.80,100.5173
612.90,100.5173
613.00,100.5157
613.10,100.5112
613.20,100.5142
613.30,100.5142
613.40,100.5112
613.50,100.5112
613.60,100.5127
613.70,100.5127
613.80,100.5112
613.90,100.5096
614.00,100.5096
614.10,100.5127
614.20,100.5127
614.30,100.5112
614.40,100.5096
614.50,100.5020
614.60,100.4929
614.70,100.4822
614.80,100.4700
614.90,100.4562
615.00,100.4532
615.10,100.4501
615.20,100.4547
615.30,100.4593
615.40,100.4730
615.50,100.4852
615.60,100.4929
615.70,100.4974
615.80,100.5020
615.90,100.5051
616.00,100.5051
616.10,100.5020
616.20,100.5035
616.30,100.5005
616.40,100.4929
616.50,100.4883
616.60,100.4883
616.70,100.4913
616.80,100.4929
616.90,100.5005
617.00,100.5035
617.10,100.5051
617.20,100.5035
617.30,100.5035
617.40,100.5020
617.50,100.5005
617.60,100.4990
617.70,100.5020
617.80,100.5020
617.90,100.5035
618.00,100.5051
618.10,100.5035
618.20,100.5020
618.30,100.4974
618.40,100.4929
618.50,100.4852
618.60,100.4807
618.70,100.4776
618.80,100.4745
618.90,100.4730
619.00,100.4730
619.10,100.4745
619.20,100.4745
619.30,100.4745
619.40,100.4745
619.50,100.4745
619.60,100.4761
619.70,100.4730
619.80,100.4700
619.90,100.4684
620.00,100.4654
620.10,100.4623
620.20,100.4593
620.30,100.4608
620.40,100.4639
620.50,100.4654
620.60,100.4684
620.70,100.4715
620.80,100.4776
620.90,100.4791
621.00,100.4776
621.10,100.4761
621.20,100.4745
621.30,100.4791
621.40,100.4761
621.50,100.4730
621.60,100.4715
621.70,100.4715
621.80,100.4639
621.90,100.4608
622.00,100.4608
622.10,100.4639
622.20,100.4654
622.30,100.4684
622.40,100.4700
622.50,100.4669
622.60,100.4684
622.70,100.4639
622.80,100.4593
622.90,100.4608
623.00,100.4608
623.10,100.4639
623.20,100.4654
623.30,100.4700
623.40,100.4715
623.50,100.4669
623.60,100.4623
623.70,100.4623
623.80,100.4608
623.90,100.4562
624.00,100.4532
624.10,100.4562
624.20,100.4578
624.30,100.4517
624.40,100.4501
624.50,100.4501
624.60,100.4486
624.70,100.4425
624.80,100.4364
624.90,100.4379
625.00,100.4364
625.10,100.4349
625.20,100.4288
625.30,100.4349
625.40,100.4364
625.50,100.4364
625.60,100.4318
625.70,100.4333
625.80,100.4364
625.90,100.4318
626.00,100.4303
626.10,100.4333
626.20,100.4379
626.30,100.4379
626.40,100.4395
626.50,100.4425
626.60,100.4440
626.70,100.4440
626.80,100.4440
626.90,100.4471
627.00,100.4471
627.10,100.4486
627.20,100.4578
627.30,100.4623
627.40,100.4623
627.50,100.4608
627.60,100.4593
627.70,100.4593
627.80,100.4532
627.90,100.4547
628.00,100.4593
628.10,100.4639
628.20,100.4639
628.30,100.4562
628.40,100.4501
628.50,100.4395
628.60,100.4318
628.70,100.4257
628.80,100.4257
628.90,100.4257
629.00,100.4257
629.10,100.4257
629.20,100.4318
629.30,100.4333
629.40,100.4303
629.50,100.4288
629.60,100.4257
629.70,100.4242
629.80,100.4242
629.90,100.4257
630.00,100.4242
630.10,100.4272
630.20,100.4242
630.30,100.4196
630.40,100.4150
630.50,100.4059
630.60,100.4059
630.70,100.4028
630.80,100.4044
630.90,100.3998
631.00,100.3998
631.10,100.4044
631.20,100.4074
631.30,100.4105
631.40,100.4120
631.50,100.4166
631.60,100.4211
631.70,100.4227
631.80,100.4196
631.90,100.4181
632.00,100.4181
632.10,100.4181
632.20,100.4150
632.30,100.4196
632.40,100.4211
632.50,100.4181
632.60,100.4089
632.70,100.4059
632.80,100.3998
632.90,100.3952
633.00,100.3952
633.10,100.3967
633.20,100.3937
633.30,100.3967
633.40,100.4044
633.50,100.4120
633.60,100.4227
633.70,100.4318
633.80,100.4410
633.90,100.4471
634.00,100.4486
634.10,100.4471
634.20,100.4456
634.30,100.4425
634.40,100.4395
634.50,100.4333
634.60,100.4303
634.70,100.4272
634.80,100.4242
634.90,100.4242
635.00,100.4257
635.10,100.4257
635.20,100.4211
635.30,100.4211
635.40,100.4242
635.50,100.4242
635.60,100.4166
635.70,100.4166
635.80,100.4181
635.90,100.4150
636.00,100.4150
636.10,100.4181
636.20,100.4211
636.30,100.4242
636.40,100.4272
636.50,100.4272
636.60,100.4272
636.70,100.4257
636.80,100.4242
636.90,100.4196
637.00,100.4135
637.10,100.4135
637.20,100.4135
637.30,100.4120
637.40,100.4105
637.50,100.4074
637.60,100.4059
637.70,100.4013
637.80,100.4013
637.90,100.4059
638.00,100.4089
638.10,100.4089
638.20,100.4120
638.30,100.4150
638.40,100.4135
638.50,100.4120
638.60,100.4105
638.70,100.4105
638.80,100.4089
638.90,100.4059
639.00,100.4028
639.10,100.4028
639.20,100.4028
639.30,100.4028
639.40,100.4044
639.50,100.4059
639.60,100.4120
639.70,100.4150
639.80,100.4181
639.90,100.4227
640.00,100.4257
640.10,100.4272
640.20,100.4242
640.30,100.4257
640.40,100.4257
640.50,100.4227
640.60,100.4211
640.70,100.4227
640.80,100.4227
640.90,100.4196
641.00,100.4211
641.10,100.4211
641.20,100.4211
641.30,100.4211
641.40,100.4181
641.50,100.4135
641.60,100.4105
641.70,100.4074
641.80,100.4044
641.90,100.4013
642.00,100.4028
642.10,100.4028
642.20,100.4044
642.30,100.4059
642.40,100.4105
642.50,100.4166
642.60,100.4196
642.70,100.4196
642.80,100.4211
642.90,100.4242
643.00,100.4257
643.10,100.4303
643.20,100.4303
643.30,100.4303
643.40,100.4272
643.50,100.4211
643.60,100.4166
643.70,100.4120
643.80,100.4120
643.90,100.4135
644.00,100.4150
644.10,100.4181
644.20,100.4150
644.30,100.4105
644.40,100.4044
644.50,100.3967
644.60,100.3891
644.70,100.3845
644.80,100.3860
644.90,100.3830
645.00,100.3845
645.10,100.3815
645.20,100.3860
645.30,100.3891
645.40,100.3952
645.50,100.3998
645.60,100.4059
645.70,100.4074
645.80,100.4089
645.90,100.4089
646.00,100.4181
646.10,100.4181
646.20,100.4196
646.30,100.4211
646.40,100.4227
646.50,100.4196
646.60,100.4135
646.70,100.4089
646.80,100.4074
646.90,100.4059
647.00,100.3998
647.10,100.3998
647.20,100.3998
647.30,100.3998
647.40,100.3967
647.50,100.3922
647.60,100.3937
647.70,100.3906
647.80,100.3906
647.90,100.3891
648.00,100.3876
648.10,100.3876
648.20,100.3830
648.30,100.3784
648.40,100.3769
648.50,100.3784
648.60,100.3799
648.70,100.3815
648.80,100.3860
648.90,100.3906
649.00,100.3967
649.10,100.4028
649.20,100.4059
649.30,100.4089
649.40,100.4166
649.50,100.4196
649.60,100.4211
649.70,100.4227
649.80,100.4227
649.90,100.4211
650.00,100.4211
