"ST1 - RawData"
"Wavelength nm.","T%"
420.00,85.0967
420.10,85.1425
420.20,85.2036
420.30,85.2692
420.40,85.3348
420.50,85.4065
420.60,85.4706
420.70,85.5301
420.80,85.5881
420.90,85.6506
421.00,85.7101
421.10,85.7681
421.20,85.8292
421.30,85.8917
421.40,85.9451
421.50,86.0016
421.60,86.0519
421.70,86.1008
421.80,86.1542
421.90,86.2076
422.00,86.2625
422.10,86.3190
422.20,86.3708
422.30,86.4182
422.40,86.4685
422.50,86.5158
422.60,86.5677
422.70,86.6135
422.80,86.6730
422.90,86.7218
423.00,86.7737
423.10,86.8195
423.20,86.8652
423.30,86.9049
423.40,86.9461
423.50,86.9843
423.60,87.0193
423.70,87.0575
423.80,87.0987
423.90,87.1399
424.00,87.1796
424.10,87.2223
424.20,87.2620
424.30,87.3108
424.40,87.3474
424.50,87.3886
424.60,87.4222
424.70,87.4649
424.80,87.5000
424.90,87.5290
425.00,87.5717
425.10,87.6022
425.20,87.6312
425.30,87.6587
425.40,87.6816
425.50,87.7136
425.60,87.7426
425.70,87.7701
425.80,87.7991
425.90,87.8281
426.00,87.8555
426.10,87.8784
426.20,87.9013
426.30,87.9288
426.40,87.9562
426.50,87.9791
426.60,88.0051
426.70,88.0310
426.80,88.0493
426.90,88.0707
427.00,88.0875
427.10,88.1042
427.20,88.1210
427.30,88.1393
427.40,88.1607
427.50,88.1821
427.60,88.1973
427.70,88.2126
427.80,88.2309
427.90,88.2477
428.00,88.2629
428.10,88.2813
428.20,88.2980
428.30,88.3163
428.40,88.3270
428.50,88.3408
428.60,88.3545
428.70,88.3743
428.80,88.3911
428.90,88.4003
429.00,88.4109
429.10,88.4186
429.20,88.4338
429.30,88.4323
429.40,88.4369
429.50,88.4491
429.60,88.4537
429.70,88.4537
429.80,88.4567
429.90,88.4628
430.00,88.4674
430.10,88.4720
430.20,88.4781
430.30,88.4857
430.40,88.4949
430.50,88.4964
430.60,88.5040
430.70,88.5132
430.80,88.5269
430.90,88.5239
431.00,88.5300
431.10,88.5284
431.20,88.5223
431.30,88.5132
431.40,88.5117
431.50,88.5025
431.60,88.4949
431.70,88.4964
431.80,88.4918
431.90,88.4811
432.00,88.4811
432.10,88.4811
432.20,88.4750
432.30,88.4674
432.40,88.4659
432.50,88.4644
432.60,88.4552
432.70,88.4521
432.80,88.4491
432.90,88.4491
433.00,88.4521
433.10,88.4567
433.20,88.4552
433.30,88.4521
433.40,88.4476
433.50,88.4354
433.60,88.4262
433.70,88.4155
433.80,88.4018
433.90,88.3896
434.00,88.3743
434.10,88.3606
434.20,88.3499
434.30,88.3408
434.40,88.3331
434.50,88.3209
434.60,88.3133
434.70,88.2996
434.80,88.2919
434.90,88.2797
435.00,88.2767
435.10,88.2706
435.20,88.2614
435.30,88.2462
435.40,88.2294
435.50,88.2141
435.60,88.2004
435.70,88.1882
435.80,88.1805
435.90,88.1760
436.00,88.1668
436.10,88.1516
436.20,88.1363
436.30,88.1226
436.40,88.1058
436.50,88.0905
436.60,88.0798
436.70,88.0676
436.80,88.0493
436.90,88.0356
437.00,88.0249
437.10,88.0127
437.20,87.9959
437.30,87.9776
437.40,87.9654
437.50,87.9425
437.60,87.9242
437.70,87.9059
437.80,87.8922
437.90,87.8784
438.00,87.8662
438.10,87.8540
438.20,87.8372
438.30,87.8220
438.40,87.8021
438.50,87.7838
438.60,87.7625
438.70,87.7502
438.80,87.7350
438.90,87.7182
439.00,87.7075
439.10,87.6923
439.20,87.6801
439.30,87.6663
439.40,87.6556
439.50,87.6465
439.60,87.6328
439.70,87.6160
439.80,87.6022
439.90,87.5870
440.00,87.5656
440.10,87.5504
440.20,87.5320
440.30,87.5137
440.40,87.4878
440.50,87.4710
440.60,87.4542
440.70,87.4344
440.80,87.4146
440.90,87.3947
441.00,87.3779
441.10,87.3566
441.20,87.3337
441.30,87.3169
441.40,87.3032
441.50,87.2894
441.60,87.2742
441.70,87.2543
441.80,87.2421
441.90,87.2284
442.00,87.2070
442.10,87.1902
442.20,87.1796
442.30,87.1658
442.40,87.1475
442.50,87.1384
442.60,87.1262
442.70,87.1094
442.80,87.0956
442.90,87.0819
443.00,87.0697
443.10,87.0560
443.20,87.0438
443.30,87.0300
443.40,87.0132
443.50,86.9995
443.60,86.9812
443.70,86.9614
443.80,86.9431
443.90,86.9278
444.00,86.9034
444.10,86.8881
444.20,86.8820
444.30,86.8698
444.40,86.8607
444.50,86.8469
444.60,86.8378
444.70,86.8195
444.80,86.8027
444.90,86.7813
445.00,86.7630
445.10,86.7508
445.20,86.7371
445.30,86.7264
445.40,86.7218
445.50,86.7111
445.60,86.6974
445.70,86.6791
445.80,86.6669
445.90,86.6470
446.00,86.6272
446.10,86.6135
446.20,86.6028
446.30,86.5891
446.40,86.5784
446.50,86.5768
446.60,86.5662
446.70,86.5570
446.80,86.5494
446.90,86.5417
447.00,86.5311
447.10,86.5219
447.20,86.5112
447.30,86.5005
447.40,86.4899
447.50,86.4777
447.60,86.4639
447.70,86.4502
447.80,86.4349
447.90,86.4182
448.00,86.4014
448.10,86.3815
448.20,86.3678
448.30,86.3602
448.40,86.3495
448.50,86.3388
448.60,86.3342
448.70,86.3205
448.80,86.3113
448.90,86.3007
449.00,86.2930
449.10,86.2808
449.20,86.2762
449.30,86.2701
449.40,86.2640
449.50,86.2564
449.60,86.2518
449.70,86.2473
449.80,86.2381
449.90,86.2274
450.00,86.2167
450.10,86.2076
450.20,86.2000
450.30,86.1893
450.40,86.1816
450.50,86.1755
450.60,86.1740
450.70,86.1710
450.80,86.1649
450.90,86.1603
451.00,86.1557
451.10,86.1481
451.20,86.1374
451.30,86.1282
451.40,86.1252
451.50,86.1206
451.60,86.1160
451.70,86.1130
451.80,86.1099
451.90,86.1053
452.00,86.0992
452.10,86.0931
452.20,86.0886
452.30,86.0825
452.40,86.0809
452.50,86.0779
452.60,86.0703
452.70,86.0641
452.80,86.0596
452.90,86.0565
453.00,86.0504
453.10,86.0443
453.20,86.0474
453.30,86.0489
453.40,86.0428
453.50,86.0428
453.60,86.0397
453.70,86.0367
453.80,86.0291
453.90,86.0245
454.00,86.0168
454.10,86.0138
454.20,86.0138
454.30,86.0153
454.40,86.0184
454.50,86.0184
454.60,86.0184
454.70,86.0153
454.80,86.0153
454.90,86.0123
455.00,86.0123
455.10,86.0153
455.20,86.0138
455.30,86.0107
455.40,86.0107
455.50,86.0107
455.60,86.0138
455.70,86.0138
455.80,86.0214
455.90,86.0229
456.00,86.0214
456.10,86.0229
456.20,86.0291
456.30,86.0275
456.40,86.0306
456.50,86.0336
456.60,86.0352
456.70,86.0336
456.80,86.0306
456.90,86.0321
457.00,86.0352
457.10,86.0428
457.20,86.0458
457.30,86.0519
457.40,86.0611
457.50,86.0641
457.60,86.0657
457.70,86.0703
457.80,86.0748
457.90,86.0794
458.00,86.0855
458.10,86.0931
458.20,86.0992
458.30,86.1023
458.40,86.1069
458.50,86.1069
458.60,86.1115
458.70,86.1145
458.80,86.1191
458.90,86.1267
459.00,86.1313
459.10,86.1328
459.20,86.1328
459.30,86.1389
459.40,86.1420
459.50,86.1481
459.60,86.1511
459.70,86.1542
459.80,86.1588
459.90,86.1633
460.00,86.1664
460.10,86.1755
460.20,86.1847
460.30,86.1938
460.40,86.2015
460.50,86.2122
460.60,86.2244
460.70,86.2381
460.80,86.2503
460.90,86.2640
461.00,86.2778
461.10,86.2930
461.20,86.2961
461.30,86.3022
461.40,86.3098
461.50,86.3159
461.60,86.3266
461.70,86.3419
461.80,86.3510
461.90,86.3602
462.00,86.3708
462.10,86.3785
462.20,86.3831
462.30,86.3831
462.40,86.3953
462.50,86.4044
462.60,86.4151
462.70,86.4182
462.80,86.4273
462.90,86.4349
463.00,86.4456
463.10,86.4502
463.20,86.4594
463.30,86.4700
463.40,86.4746
463.50,86.4777
463.60,86.4807
463.70,86.4883
463.80,86.4944
463.90,86.5005
464.00,86.5143
464.10,86.5250
464.20,86.5341
464.30,86.5494
464.40,86.5616
464.50,86.5723
464.60,86.5875
464.70,86.6028
464.80,86.6226
464.90,86.6409
465.00,86.6608
465.10,86.6760
465.20,86.6928
465.30,86.7081
465.40,86.7203
465.50,86.7264
465.60,86.7310
465.70,86.7401
465.80,86.7462
465.90,86.7554
466.00,86.7737
466.10,86.7920
466.20,86.8073
466.30,86.8240
466.40,86.8378
466.50,86.8500
466.60,86.8561
466.70,86.8622
466.80,86.8683
466.90,86.8759
467.00,86.8835
467.10,86.8866
467.20,86.8988
467.30,86.9095
467.40,86.9217
467.50,86.9308
467.60,86.9461
467.70,86.9568
467.80,86.9659
467.90,86.9766
468.00,86.9919
468.10,87.0026
468.20,87.0132
468.30,87.0239
468.40,87.0346
468.50,87.0483
468.60,87.0605
468.70,87.0743
468.80,87.0895
468.90,87.1094
469.00,87.1231
469.10,87.1384
469.20,87.1552
469.30,87.1689
469.40,87.1826
469.50,87.1964
469.60,87.2131
469.70,87.2269
469.80,87.2437
469.90,87.2574
470.00,87.2681
470.10,87.2818
470.20,87.2955
470.30,87.3047
470.40,87.3215
470.50,87.3383
470.60,87.3520
470.70,87.3627
470.80,87.3795
470.90,87.3932
471.00,87.3993
471.10,87.4054
471.20,87.4146
471.30,87.4298
471.40,87.4405
471.50,87.4573
471.60,87.4771
471.70,87.4969
471.80,87.5168
471.90,87.5290
472.00,87.5473
472.10,87.5610
472.20,87.5732
472.30,87.5839
472.40,87.6038
472.50,87.6190
472.60,87.6404
472.70,87.6587
472.80,87.6770
472.90,87.6953
473.00,87.7060
473.10,87.7136
473.20,87.7258
473.30,87.7365
473.40,87.7441
473.50,87.7548
473.60,87.7716
473.70,87.7853
473.80,87.8021
473.90,87.8250
474.00,87.8448
474.10,87.8647
474.20,87.8815
474.30,87.8952
474.40,87.9105
474.50,87.9272
474.60,87.9425
474.70,87.9578
474.80,87.9745
474.90,87.9944
475.00,88.0157
475.10,88.0341
475.20,88.0493
475.30,88.0722
475.40,88.0936
475.50,88.1073
475.60,88.1226
475.70,88.1393
475.80,88.1607
475.90,88.1744
476.00,88.1927
476.10,88.2095
476.20,88.2263
476.30,88.2416
476.40,88.2538
476.50,88.2675
476.60,88.2874
476.70,88.3041
476.80,88.3301
476.90,88.3469
477.00,88.3636
477.10,88.3759
477.20,88.3881
477.30,88.3972
477.40,88.4064
477.50,88.4216
477.60,88.4369
477.70,88.4552
477.80,88.4735
477.90,88.4995
478.00,88.5178
478.10,88.5391
478.20,88.5605
478.30,88.5849
478.40,88.6017
478.50,88.6200
478.60,88.6368
478.70,88.6520
478.80,88.6658
478.90,88.6826
479.00,88.6978
479.10,88.7161
479.20,88.7344
479.30,88.7497
479.40,88.7604
479.50,88.7711
479.60,88.7863
479.70,88.7985
479.80,88.8153
479.90,88.8321
480.00,88.8565
480.10,88.8779
480.20,88.8992
480.30,88.9191
480.40,88.9359
480.50,88.9557
480.60,88.9725
480.70,88.9862
480.80,89.0030
480.90,89.0228
481.00,89.0411
481.10,89.0549
481.20,89.0747
481.30,89.0991
481.40,89.1205
481.50,89.1373
481.60,89.1602
481.70,89.1785
481.80,89.1953
481.90,89.2105
482.00,89.2288
482.10,89.2456
482.20,89.2624
482.30,89.2822
482.40,89.3005
482.50,89.3173
482.60,89.3372
482.70,89.3616
482.80,89.3829
482.90,89.4043
483.00,89.4257
483.10,89.4440
483.20,89.4577
483.30,89.4745
483.40,89.4852
483.50,89.5050
483.60,89.5233
483.70,89.5447
483.80,89.5676
483.90,89.5889
484.00,89.6149
484.10,89.6393
484.20,89.6637
484.30,89.6851
484.40,89.7079
484.50,89.7278
484.60,89.7446
484.70,89.7629
484.80,89.7842
484.90,89.8041
485.00,89.8239
485.10,89.8422
485.20,89.8605
485.30,89.8773
485.40,89.8911
485.50,89.9078
485.60,89.9261
485.70,89.9475
485.80,89.9704
485.90,89.9963
486.00,90.0192
486.10,90.0375
486.20,90.0558
486.30,90.0726
486.40,90.0925
486.50,90.1138
486.60,90.1352
486.70,90.1581
486.80,90.1764
486.90,90.1932
487.00,90.2054
487.10,90.2222
487.20,90.2405
487.30,90.2573
487.40,90.2756
487.50,90.2985
487.60,90.3183
487.70,90.3366
487.80,90.3549
487.90,90.3809
488.00,90.4022
488.10,90.4236
488.20,90.4480
488.30,90.4709
488.40,90.4907
488.50,90.5075
488.60,90.5273
488.70,90.5441
488.80,90.5609
488.90,90.5823
489.00,90.6052
489.10,90.6265
489.20,90.6418
489.30,90.6616
489.40,90.6815
489.50,90.7028
489.60,90.7211
489.70,90.7364
489.80,90.7562
489.90,90.7745
490.00,90.7913
490.10,90.8096
490.20,90.8310
490.30,90.8554
490.40,90.8752
490.50,90.8951
490.60,90.9149
490.70,90.9363
490.80,90.9592
490.90,90.9836
491.00,91.0065
491.10,91.0294
491.20,91.0538
491.30,91.0736
491.40,91.0950
491.50,91.1133
491.60,91.1362
491.70,91.1560
491.80,91.1774
491.90,91.1987
492.00,91.2170
492.10,91.2369
492.20,91.2598
492.30,91.2766
492.40,91.2994
492.50,91.3208
492.60,91.3391
492.70,91.3559
492.80,91.3757
492.90,91.3956
493.00,91.4108
493.10,91.4322
493.20,91.4520
493.30,91.4703
493.40,91.4856
493.50,91.5039
493.60,91.5329
493.70,91.5573
493.80,91.5894
493.90,91.6153
494.00,91.6412
494.10,91.6626
494.20,91.6824
494.30,91.7023
494.40,91.7191
494.50,91.7389
494.60,91.7557
494.70,91.7709
494.80,91.7847
494.90,91.8045
495.00,91.8289
495.10,91.8488
495.20,91.8716
495.30,91.8976
495.40,91.9205
495.50,91.9388
495.60,91.9601
495.70,91.9846
495.80,92.0090
495.90,92.0319
496.00,92.0578
496.10,92.0776
496.20,92.0959
496.30,92.1082
496.40,92.1280
496.50,92.1448
496.60,92.1616
496.70,92.1829
496.80,92.2089
496.90,92.2348
497.00,92.2592
497.10,92.2852
497.20,92.3065
497.30,92.3264
497.40,92.3477
497.50,92.3660
497.60,92.3965
497.70,92.4225
497.80,92.4484
497.90,92.4698
498.00,92.4911
498.10,92.5064
498.20,92.5171
498.30,92.5354
498.40,92.5583
498.50,92.5781
498.60,92.5919
498.70,92.6086
498.80,92.6254
498.90,92.6407
499.00,92.6605
499.10,92.6819
499.20,92.7078
499.30,92.7322
499.40,92.7521
499.50,92.7765
499.60,92.7963
499.70,92.8223
499.80,92.8452
499.90,92.8680
500.00,92.8940
500.10,92.9214
500.20,92.9382
500.30,92.9565
500.40,92.9718
500.50,92.9871
500.60,93.0023
500.70,93.0115
500.80,93.0298
500.90,93.0481
501.00,93.0664
501.10,93.0908
501.20,93.1122
501.30,93.1335
501.40,93.1488
501.50,93.1717
501.60,93.1931
501.70,93.2068
501.80,93.2343
501.90,93.2617
502.00,93.2877
502.10,93.3121
502.20,93.3395
502.30,93.3578
502.40,93.3762
502.50,93.3990
502.60,93.4204
502.70,93.4341
502.80,93.4540
502.90,93.4738
503.00,93.4921
503.10,93.5089
503.20,93.5303
503.30,93.5547
503.40,93.5730
503.50,93.5913
503.60,93.6111
503.70,93.6295
503.80,93.6447
503.90,93.6630
504.00,93.6844
504.10,93.6981
504.20,93.7119
504.30,93.7302
504.40,93.7454
504.50,93.7592
504.60,93.7744
504.70,93.7958
504.80,93.8126
504.90,93.8293
505.00,93.8477
505.10,93.8690
505.20,93.8904
505.30,93.9056
505.40,93.9270
505.50,93.9468
505.60,93.9636
505.70,93.9804
505.80,94.0002
505.90,94.0247
506.00,94.0460
506.10,94.0613
506.20,94.0720
506.30,94.0887
506.40,94.1071
506.50,94.1193
506.60,94.1391
506.70,94.1696
506.80,94.1910
506.90,94.2108
507.00,94.2337
507.10,94.2551
507.20,94.2749
507.30,94.2978
507.40,94.3207
507.50,94.3405
507.60,94.3619
507.70,94.3832
507.80,94.4092
507.90,94.4260
508.00,94.4473
508.10,94.4687
508.20,94.4870
508.30,94.5053
508.40,94.5221
508.50,94.5404
508.60,94.5602
508.70,94.5724
508.80,94.5862
508.90,94.6030
509.00,94.6198
509.10,94.6365
509.20,94.6594
509.30,94.6793
509.40,94.7006
509.50,94.7250
509.60,94.7403
509.70,94.7556
509.80,94.7723
509.90,94.7906
510.00,94.8074
510.10,94.8257
510.20,94.8486
510.30,94.8730
510.40,94.8975
510.50,94.9142
510.60,94.9356
510.70,94.9524
510.80,94.9661
510.90,94.9768
511.00,94.9890
511.10,95.0027
511.20,95.0134
511.30,95.0317
511.40,95.0516
511.50,95.0699
511.60,95.0912
511.70,95.1096
511.80,95.1309
511.90,95.1492
512.00,95.1691
512.10,95.1843
512.20,95.2057
512.30,95.2225
512.40,95.2362
512.50,95.2545
512.60,95.2744
512.70,95.2927
512.80,95.3094
512.90,95.3308
513.00,95.3476
513.10,95.3644
513.20,95.3766
513.30,95.3888
513.40,95.3995
513.50,95.4132
513.60,95.4285
513.70,95.4453
513.80,95.4636
513.90,95.4803
514.00,95.5032
514.10,95.5200
514.20,95.5338
514.30,95.5505
514.40,95.5765
514.50,95.5978
514.60,95.6223
514.70,95.6421
514.80,95.6635
514.90,95.6787
515.00,95.6924
515.10,95.7092
515.20,95.7199
515.30,95.7352
515.40,95.7504
515.50,95.7657
515.60,95.7733
515.70,95.7840
515.80,95.8008
515.90,95.8176
516.00,95.8298
516.10,95.8481
516.20,95.8694
516.30,95.8832
516.40,95.9000
516.50,95.9183
516.60,95.9366
516.70,95.9549
516.80,95.9778
516.90,95.9946
517.00,96.0129
517.10,96.0312
517.20,96.0526
517.30,96.0693
517.40,96.0861
517.50,96.1044
517.60,96.1288
517.70,96.1472
517.80,96.1609
517.90,96.1807
518.00,96.1960
518.10,96.2051
518.20,96.2143
518.30,96.2280
518.40,96.2387
518.50,96.2509
518.60,96.2677
518.70,96.2845
518.80,96.2952
518.90,96.3074
519.00,96.3196
519.10,96.3364
519.20,96.3486
519.30,96.3654
519.40,96.3867
519.50,96.4066
519.60,96.4218
519.70,96.4386
519.80,96.4584
519.90,96.4767
520.00,96.4890
520.10,96.4981
520.20,96.5149
520.30,96.5302
520.40,96.5408
520.50,96.5546
520.60,96.5744
520.70,96.5927
520.80,96.6080
520.90,96.6217
521.00,96.6400
521.10,96.6522
521.20,96.6660
521.30,96.6782
521.40,96.6965
521.50,96.7102
521.60,96.7255
521.70,96.7407
521.80,96.7529
521.90,96.7682
522.00,96.7758
522.10,96.7865
522.20,96.8002
522.30,96.8170
522.40,96.8277
522.50,96.8414
522.60,96.8567
522.70,96.8719
522.80,96.8872
522.90,96.9025
523.00,96.9101
523.10,96.9238
523.20,96.9376
523.30,96.9467
523.40,96.9543
523.50,96.9681
523.60,96.9833
523.70,96.9894
523.80,97.0016
523.90,97.0108
524.00,97.0215
524.10,97.0352
524.20,97.0505
524.30,97.0657
524.40,97.0810
524.50,97.1008
524.60,97.1146
524.70,97.1298
524.80,97.1512
524.90,97.1695
525.00,97.1817
525.10,97.1909
525.20,97.2015
525.30,97.2137
525.40,97.2229
525.50,97.2336
525.60,97.2519
525.70,97.2702
525.80,97.2885
525.90,97.3038
526.00,97.3221
526.10,97.3373
526.20,97.3495
526.30,97.3602
526.40,97.3724
526.50,97.3831
526.60,97.3969
526.70,97.4152
526.80,97.4289
526.90,97.4442
527.00,97.4640
527.10,97.4762
527.20,97.4869
527.30,97.4991
527.40,97.5128
527.50,97.5204
527.60,97.5342
527.70,97.5449
527.80,97.5555
527.90,97.5662
528.00,97.5754
528.10,97.5830
528.20,97.5922
528.30,97.6089
528.40,97.6196
528.50,97.6364
528.60,97.6578
528.70,97.6730
528.80,97.6868
528.90,97.7020
529.00,97.7188
529.10,97.7325
529.20,97.7386
529.30,97.7493
529.40,97.7631
529.50,97.7707
529.60,97.7798
529.70,97.7921
529.80,97.8119
529.90,97.8241
530.00,97.8333
530.10,97.8424
530.20,97.8516
530.30,97.8607
530.40,97.8699
530.50,97.8867
530.60,97.9019
530.70,97.9111
530.80,97.9172
530.90,97.9248
531.00,97.9309
531.10,97.9416
531.20,97.9538
531.30,97.9691
531.40,97.9874
531.50,98.0026
531.60,98.0148
531.70,98.0240
531.80,98.0331
531.90,98.0499
532.00,98.0576
532.10,98.0652
532.20,98.0759
532.30,98.0881
532.40,98.1064
532.50,98.1201
532.60,98.1354
532.70,98.1552
532.80,98.1705
532.90,98.1796
533.00,98.1873
533.10,98.1949
533.20,98.2040
533.30,98.2071
533.40,98.2147
533.50,98.2193
533.60,98.2178
533.70,98.2193
533.80,98.2315
533.90,98.2391
534.00,98.2422
534.10,98.2544
534.20,98.2727
534.30,98.2880
534.40,98.2986
534.50,98.3185
534.60,98.3353
534.70,98.3505
534.80,98.3597
534.90,98.3704
535.00,98.3826
535.10,98.3994
535.20,98.4192
535.30,98.4390
535.40,98.4619
535.50,98.4802
535.60,98.4955
535.70,98.5016
535.80,98.5062
535.90,98.5184
536.00,98.5260
536.10,98.5352
536.20,98.5413
536.30,98.5580
536.40,98.5596
536.50,98.5641
536.60,98.5687
536.70,98.5657
536.80,98.5672
536.90,98.5703
537.00,98.5718
537.10,98.5703
537.20,98.5748
537.30,98.5855
537.40,98.5931
537.50,98.6038
537.60,98.6145
537.70,98.6267
537.80,98.6328
537.90,98.6359
538.00,98.6374
538.10,98.6420
538.20,98.6496
538.30,98.6603
538.40,98.6771
538.50,98.6969
538.60,98.7137
538.70,98.7244
538.80,98.7289
538.90,98.7335
539.00,98.7350
539.10,98.7442
539.20,98.7564
539.30,98.7747
539.40,98.7946
539.50,98.8113
539.60,98.8235
539.70,98.8358
539.80,98.8388
539.90,98.8434
540.00,98.8510
540.10,98.8571
540.20,98.8541
540.30,98.8556
540.40,98.8632
540.50,98.8693
540.60,98.8785
540.70,98.8861
540.80,98.8968
540.90,98.9075
541.00,98.9166
541.10,98.9258
541.20,98.9380
541.30,98.9502
541.40,98.9624
541.50,98.9731
541.60,98.9777
541.70,98.9822
541.80,98.9868
541.90,98.9960
542.00,99.0021
542.10,99.0112
542.20,99.0204
542.30,99.0356
542.40,99.0433
542.50,99.0494
542.60,99.0555
542.70,99.0677
542.80,99.0753
542.90,99.0845
543.00,99.1013
543.10,99.1165
543.20,99.1302
543.30,99.1348
543.40,99.1409
543.50,99.1470
543.60,99.1531
543.70,99.1592
543.80,99.1714
543.90,99.1791
544.00,99.1791
544.10,99.1806
544.20,99.1867
544.30,99.1898
544.40,99.1913
544.50,99.2020
544.60,99.2157
