"ST2 - RawData"
"Wavelength nm.","T%"
420.00,74.8367
420.10,74.9069
420.20,75.0015
420.30,75.1160
420.40,75.2380
420.50,75.3647
420.60,75.4822
420.70,75.6012
420.80,75.7111
420.90,75.8148
421.00,75.9094
421.10,76.0071
421.20,76.1032
421.30,76.1948
421.40,76.2878
421.50,76.3870
421.60,76.4862
421.70,76.5762
421.80,76.6708
421.90,76.7609
422.00,76.8494
422.10,76.9302
422.20,77.0096
422.30,77.0981
422.40,77.1805
422.50,77.2705
422.60,77.3544
422.70,77.4445
422.80,77.5253
422.90,77.6047
423.00,77.6871
423.10,77.7695
423.20,77.8442
423.30,77.9205
423.40,77.9907
423.50,78.0548
423.60,78.1128
423.70,78.1784
423.80,78.2486
423.90,78.3173
424.00,78.3875
424.10,78.4576
424.20,78.5248
424.30,78.5950
424.40,78.6575
424.50,78.7186
424.60,78.7827
424.70,78.8513
424.80,78.9063
424.90,78.9612
425.00,79.0176
425.10,79.0741
425.20,79.1306
425.30,79.1794
425.40,79.2313
425.50,79.2892
425.60,79.3396
425.70,79.3869
425.80,79.4327
425.90,79.4785
426.00,79.5166
426.10,79.5578
426.20,79.5914
426.30,79.6295
426.40,79.6646
426.50,79.7028
426.60,79.7424
426.70,79.7836
426.80,79.8187
426.90,79.8615
427.00,79.8996
427.10,79.9271
427.20,79.9591
427.30,79.9911
427.40,80.0156
427.50,80.0400
427.60,80.0674
427.70,80.0964
427.80,80.1270
427.90,80.1559
428.00,80.1819
428.10,80.2063
428.20,80.2277
428.30,80.2536
428.40,80.2750
428.50,80.2994
428.60,80.3177
428.70,80.3406
428.80,80.3589
428.90,80.3757
429.00,80.3894
429.10,80.4001
429.20,80.4108
429.30,80.4199
429.40,80.4306
429.50,80.4398
429.60,80.4535
429.70,80.4642
429.80,80.4749
429.90,80.4871
430.00,80.4977
430.10,80.5054
430.20,80.5084
430.30,80.5206
430.40,80.5313
430.50,80.5328
430.60,80.5405
430.70,80.5481
430.80,80.5511
430.90,80.5496
431.00,80.5542
431.10,80.5618
431.20,80.5618
431.30,80.5603
431.40,80.5542
431.50,80.5450
431.60,80.5374
431.70,80.5298
431.80,80.5252
431.90,80.5145
432.00,80.5099
432.10,80.5038
432.20,80.4962
432.30,80.4840
432.40,80.4810
432.50,80.4718
432.60,80.4611
432.70,80.4535
432.80,80.4428
432.90,80.4321
433.00,80.4230
433.10,80.4153
433.20,80.4062
433.30,80.3894
433.40,80.3741
433.50,80.3558
433.60,80.3421
433.70,80.3253
433.80,80.3085
433.90,80.2979
434.00,80.2811
434.10,80.2689
434.20,80.2521
434.30,80.2307
434.40,80.2124
434.50,80.1941
434.60,80.1773
434.70,80.1575
434.80,80.1331
434.90,80.1117
435.00,80.0842
435.10,80.0598
435.20,80.0369
435.30,80.0171
435.40,80.0018
435.50,79.9820
435.60,79.9652
435.70,79.9484
435.80,79.9286
435.90,79.9088
436.00,79.8904
436.10,79.8691
436.20,79.8447
436.30,79.8187
436.40,79.7928
436.50,79.7638
436.60,79.7409
436.70,79.7195
436.80,79.6906
436.90,79.6661
437.00,79.6402
437.10,79.6158
437.20,79.5853
437.30,79.5624
437.40,79.5410
437.50,79.5090
437.60,79.4769
437.70,79.4540
437.80,79.4281
437.90,79.4006
438.00,79.3671
438.10,79.3381
438.20,79.3091
438.30,79.2755
438.40,79.2435
438.50,79.2114
438.60,79.1901
438.70,79.1595
438.80,79.1306
438.90,79.0939
439.00,79.0680
439.10,79.0344
439.20,79.0085
439.30,78.9841
439.40,78.9658
439.50,78.9429
439.60,78.9154
439.70,78.8879
439.80,78.8574
439.90,78.8239
440.00,78.7857
440.10,78.7567
440.20,78.7277
440.30,78.6942
440.40,78.6606
440.50,78.6331
440.60,78.6026
440.70,78.5629
440.80,78.5339
440.90,78.5049
441.00,78.4714
441.10,78.4409
441.20,78.4149
441.30,78.3859
441.40,78.3585
441.50,78.3295
441.60,78.3051
441.70,78.2761
441.80,78.2471
441.90,78.2181
442.00,78.1845
442.10,78.1540
442.20,78.1204
442.30,78.0884
442.40,78.0533
442.50,78.0228
442.60,77.9892
442.70,77.9556
442.80,77.9221
442.90,77.8992
443.00,77.8763
443.10,77.8503
443.20,77.8290
443.30,77.8061
443.40,77.7817
443.50,77.7496
443.60,77.7161
443.70,77.6840
443.80,77.6596
443.90,77.6291
444.00,77.6001
444.10,77.5742
444.20,77.5528
444.30,77.5284
444.40,77.4979
444.50,77.4765
444.60,77.4536
444.70,77.4261
444.80,77.3956
444.90,77.3697
445.00,77.3392
445.10,77.3117
445.20,77.2858
445.30,77.2568
445.40,77.2354
445.50,77.2079
445.60,77.1851
445.70,77.1576
445.80,77.1332
445.90,77.1088
446.00,77.0798
446.10,77.0599
446.20,77.0401
446.30,77.0233
446.40,77.0004
446.50,76.9791
446.60,76.9547
446.70,76.9363
446.80,76.9196
446.90,76.9028
447.00,76.8845
447.10,76.8616
447.20,76.8387
447.30,76.8173
447.40,76.7929
447.50,76.7715
447.60,76.7502
447.70,76.7303
447.80,76.7044
447.90,76.6769
448.00,76.6510
448.10,76.6281
448.20,76.6083
448.30,76.5900
448.40,76.5762
448.50,76.5610
448.60,76.5457
448.70,76.5228
448.80,76.5045
448.90,76.4862
449.00,76.4618
449.10,76.4389
449.20,76.4191
449.30,76.3992
449.40,76.3855
449.50,76.3733
449.60,76.3626
449.70,76.3519
449.80,76.3397
449.90,76.3245
450.00,76.3000
450.10,76.2817
450.20,76.2665
450.30,76.2527
450.40,76.2390
450.50,76.2314
450.60,76.2222
450.70,76.2070
450.80,76.1948
450.90,76.1826
451.00,76.1719
451.10,76.1566
451.20,76.1444
451.30,76.1383
451.40,76.1261
451.50,76.1139
451.60,76.1032
451.70,76.0971
451.80,76.0864
451.90,76.0712
452.00,76.0590
452.10,76.0483
452.20,76.0330
452.30,76.0223
452.40,76.0117
452.50,76.0086
452.60,76.0010
452.70,75.9995
452.80,75.9933
452.90,75.9811
453.00,75.9674
453.10,75.9552
453.20,75.9415
453.30,75.9293
453.40,75.9247
453.50,75.9201
453.60,75.9140
453.70,75.9018
453.80,75.8957
453.90,75.8835
454.00,75.8743
454.10,75.8667
454.20,75.8636
454.30,75.8591
454.40,75.8591
454.50,75.8575
454.60,75.8545
454.70,75.8499
454.80,75.8484
454.90,75.8453
455.00,75.8453
455.10,75.8423
455.20,75.8408
455.30,75.8469
455.40,75.8469
455.50,75.8484
455.60,75.8499
455.70,75.8514
455.80,75.8499
455.90,75.8408
456.00,75.8377
456.10,75.8377
456.20,75.8377
456.30,75.8316
456.40,75.8331
456.50,75.8392
456.60,75.8362
456.70,75.8362
456.80,75.8362
456.90,75.8408
457.00,75.8408
457.10,75.8408
457.20,75.8392
457.30,75.8408
457.40,75.8423
457.50,75.8438
457.60,75.8469
457.70,75.8545
457.80,75.8606
457.90,75.8667
458.00,75.8728
458.10,75.8804
458.20,75.8804
458.30,75.8850
458.40,75.8896
458.50,75.8942
458.60,75.9018
458.70,75.9079
458.80,75.9171
458.90,75.9232
459.00,75.9293
459.10,75.9323
459.20,75.9369
459.30,75.9399
459.40,75.9415
459.50,75.9445
459.60,75.9476
459.70,75.9506
459.80,75.9552
459.90,75.9583
460.00,75.9628
460.10,75.9689
460.20,75.9766
460.30,75.9842
460.40,75.9979
460.50,76.0117
460.60,76.0239
460.70,76.0422
460.80,76.0574
460.90,76.0712
461.00,76.0864
461.10,76.1017
461.20,76.1154
461.30,76.1276
461.40,76.1337
461.50,76.1444
461.60,76.1581
461.70,76.1734
461.80,76.1810
461.90,76.1917
462.00,76.2070
462.10,76.2100
462.20,76.2207
462.30,76.2299
462.40,76.2421
462.50,76.2527
462.60,76.2680
462.70,76.2756
462.80,76.2863
462.90,76.3000
463.00,76.3153
463.10,76.3260
463.20,76.3367
463.30,76.3519
463.40,76.3641
463.50,76.3687
463.60,76.3779
463.70,76.3931
463.80,76.4053
463.90,76.4130
464.00,76.4267
464.10,76.4404
464.20,76.4481
464.30,76.4618
464.40,76.4832
464.50,76.5030
464.60,76.5289
464.70,76.5503
464.80,76.5778
464.90,76.5991
465.00,76.6235
465.10,76.6434
465.20,76.6602
465.30,76.6815
465.40,76.6998
465.50,76.7136
465.60,76.7258
465.70,76.7380
465.80,76.7471
465.90,76.7563
466.00,76.7700
466.10,76.7899
466.20,76.8097
466.30,76.8295
466.40,76.8509
466.50,76.8677
466.60,76.8860
466.70,76.9028
466.80,76.9211
466.90,76.9394
467.00,76.9547
467.10,76.9730
467.20,76.9852
467.30,77.0004
467.40,77.0142
467.50,77.0264
467.60,77.0432
467.70,77.0584
467.80,77.0752
467.90,77.0905
468.00,77.1103
468.10,77.1286
468.20,77.1484
468.30,77.1698
468.40,77.1927
468.50,77.2141
468.60,77.2354
468.70,77.2583
468.80,77.2797
468.90,77.3026
469.00,77.3193
469.10,77.3392
469.20,77.3605
469.30,77.3804
469.40,77.4017
469.50,77.4185
469.60,77.4399
469.70,77.4582
469.80,77.4750
469.90,77.4933
470.00,77.5146
470.10,77.5406
470.20,77.5604
470.30,77.5803
470.40,77.6031
470.50,77.6245
470.60,77.6398
470.70,77.6581
470.80,77.6840
470.90,77.7100
471.00,77.7313
471.10,77.7496
471.20,77.7725
471.30,77.7924
471.40,77.8091
471.50,77.8259
471.60,77.8473
471.70,77.8656
471.80,77.8885
471.90,77.9083
472.00,77.9358
472.10,77.9572
472.20,77.9831
472.30,78.0090
472.40,78.0334
472.50,78.0563
472.60,78.0823
472.70,78.1082
472.80,78.1342
472.90,78.1586
473.00,78.1830
473.10,78.2059
473.20,78.2288
473.30,78.2471
473.40,78.2623
473.50,78.2806
473.60,78.2990
473.70,78.3157
473.80,78.3371
473.90,78.3600
474.00,78.3859
474.10,78.4134
474.20,78.4378
474.30,78.4592
474.40,78.4821
474.50,78.5034
474.60,78.5294
474.70,78.5522
474.80,78.5812
474.90,78.6118
475.00,78.6407
475.10,78.6682
475.20,78.6942
475.30,78.7170
475.40,78.7430
475.50,78.7720
475.60,78.8010
475.70,78.8330
475.80,78.8696
475.90,78.9001
476.00,78.9291
476.10,78.9536
476.20,78.9764
476.30,78.9993
476.40,79.0192
476.50,79.0451
476.60,79.0726
476.70,79.1000
476.80,79.1229
476.90,79.1443
477.00,79.1687
477.10,79.1916
477.20,79.2145
477.30,79.2374
477.40,79.2603
477.50,79.2877
477.60,79.3091
477.70,79.3304
477.80,79.3579
477.90,79.3900
478.00,79.4128
478.10,79.4434
478.20,79.4754
478.30,79.4998
478.40,79.5197
478.50,79.5502
478.60,79.5807
478.70,79.6097
478.80,79.6417
478.90,79.6768
479.00,79.7089
479.10,79.7363
479.20,79.7638
479.30,79.7867
479.40,79.8126
479.50,79.8355
479.60,79.8584
479.70,79.8798
479.80,79.9088
479.90,79.9377
480.00,79.9683
480.10,79.9957
480.20,80.0232
480.30,80.0491
480.40,80.0735
480.50,80.0995
480.60,80.1254
480.70,80.1575
480.80,80.1865
480.90,80.2170
481.00,80.2475
481.10,80.2795
481.20,80.3131
481.30,80.3406
481.40,80.3711
481.50,80.3970
481.60,80.4276
481.70,80.4535
481.80,80.4855
481.90,80.5191
482.00,80.5557
482.10,80.5817
482.20,80.6107
482.30,80.6412
482.40,80.6686
482.50,80.6976
482.60,80.7281
482.70,80.7587
482.80,80.7922
482.90,80.8243
483.00,80.8548
483.10,80.8807
483.20,80.9067
483.30,80.9341
483.40,80.9586
483.50,80.9875
483.60,81.0242
483.70,81.0577
483.80,81.0944
483.90,81.1249
484.00,81.1584
484.10,81.1890
484.20,81.2180
484.30,81.2469
484.40,81.2820
484.50,81.3171
484.60,81.3522
484.70,81.3873
484.80,81.4240
484.90,81.4545
485.00,81.4804
485.10,81.5079
485.20,81.5384
485.30,81.5689
485.40,81.6025
485.50,81.6376
485.60,81.6742
485.70,81.7093
485.80,81.7413
485.90,81.7703
486.00,81.8024
486.10,81.8314
486.20,81.8573
486.30,81.8878
486.40,81.9214
486.50,81.9565
486.60,81.9901
486.70,82.0206
486.80,82.0511
486.90,82.0755
487.00,82.1045
487.10,82.1320
487.20,82.1594
487.30,82.1899
487.40,82.2205
487.50,82.2540
487.60,82.2815
487.70,82.3151
487.80,82.3471
487.90,82.3837
488.00,82.4158
488.10,82.4463
488.20,82.4799
488.30,82.5104
488.40,82.5455
488.50,82.5806
488.60,82.6141
488.70,82.6492
488.80,82.6813
488.90,82.7148
489.00,82.7469
489.10,82.7728
489.20,82.8018
489.30,82.8354
489.40,82.8659
489.50,82.8995
489.60,82.9346
489.70,82.9697
489.80,83.0048
489.90,83.0399
490.00,83.0719
490.10,83.1009
490.20,83.1345
490.30,83.1604
490.40,83.1894
490.50,83.2230
490.60,83.2581
490.70,83.2947
490.80,83.3298
490.90,83.3633
491.00,83.3954
491.10,83.4244
491.20,83.4564
491.30,83.4885
491.40,83.5236
491.50,83.5602
491.60,83.5999
491.70,83.6365
491.80,83.6761
491.90,83.7128
492.00,83.7494
492.10,83.7845
492.20,83.8226
492.30,83.8501
492.40,83.8806
492.50,83.9142
492.60,83.9447
492.70,83.9691
492.80,84.0027
492.90,84.0393
493.00,84.0714
493.10,84.1049
493.20,84.1431
493.30,84.1782
493.40,84.2087
493.50,84.2407
493.60,84.2743
493.70,84.3124
493.80,84.3506
493.90,84.3903
494.00,84.4254
494.10,84.4604
494.20,84.4925
494.30,84.5230
494.40,84.5535
494.50,84.5901
494.60,84.6252
494.70,84.6634
494.80,84.6970
494.90,84.7321
495.00,84.7717
495.10,84.8083
495.20,84.8450
495.30,84.8770
495.40,84.9106
495.50,84.9442
495.60,84.9716
495.70,85.0052
495.80,85.0418
495.90,85.0784
496.00,85.1151
496.10,85.1501
496.20,85.1837
496.30,85.2158
496.40,85.2539
496.50,85.2890
496.60,85.3256
496.70,85.3622
496.80,85.4004
496.90,85.4355
497.00,85.4721
497.10,85.5103
497.20,85.5438
497.30,85.5820
497.40,85.6155
497.50,85.6476
497.60,85.6873
497.70,85.7254
497.80,85.7620
497.90,85.7971
498.00,85.8337
498.10,85.8612
498.20,85.8887
498.30,85.9192
498.40,85.9497
498.50,85.9848
498.60,86.0184
498.70,86.0519
498.80,86.0855
498.90,86.1176
499.00,86.1557
499.10,86.1938
499.20,86.2320
499.30,86.2686
499.40,86.3068
499.50,86.3449
499.60,86.3739
499.70,86.4105
499.80,86.4487
499.90,86.4883
500.00,86.5250
500.10,86.5616
500.20,86.5982
500.30,86.6302
500.40,86.6577
500.50,86.6867
500.60,86.7142
500.70,86.7401
500.80,86.7676
500.90,86.7966
501.00,86.8271
501.10,86.8652
501.20,86.8973
501.30,86.9308
501.40,86.9644
501.50,87.0010
501.60,87.0361
501.70,87.0682
501.80,87.1094
501.90,87.1506
502.00,87.1887
502.10,87.2269
502.20,87.2711
502.30,87.3138
502.40,87.3474
502.50,87.3840
502.60,87.4222
502.70,87.4557
502.80,87.4832
502.90,87.5153
503.00,87.5488
503.10,87.5793
503.20,87.6144
503.30,87.6495
503.40,87.6801
503.50,87.7121
503.60,87.7426
503.70,87.7731
503.80,87.8021
503.90,87.8357
504.00,87.8723
504.10,87.9028
504.20,87.9288
504.30,87.9562
504.40,87.9837
504.50,88.0127
504.60,88.0432
504.70,88.0768
504.80,88.1088
504.90,88.1424
505.00,88.1775
505.10,88.2156
505.20,88.2538
505.30,88.2919
505.40,88.3255
505.50,88.3560
505.60,88.3835
505.70,88.4125
505.80,88.4460
505.90,88.4766
506.00,88.5117
506.10,88.5452
506.20,88.5757
506.30,88.6063
506.40,88.6398
506.50,88.6734
506.60,88.7070
506.70,88.7405
506.80,88.7741
506.90,88.8046
507.00,88.8382
507.10,88.8718
507.20,88.9084
507.30,88.9465
507.40,88.9847
507.50,89.0228
507.60,89.0610
507.70,89.0976
507.80,89.1342
507.90,89.1663
508.00,89.1998
508.10,89.2303
508.20,89.2609
508.30,89.2929
508.40,89.3234
508.50,89.3555
508.60,89.3875
508.70,89.4165
508.80,89.4470
508.90,89.4836
509.00,89.5172
509.10,89.5493
509.20,89.5874
509.30,89.6240
509.40,89.6637
509.50,89.7003
509.60,89.7385
509.70,89.7720
509.80,89.8071
509.90,89.8392
510.00,89.8651
510.10,89.8911
510.20,89.9185
510.30,89.9506
510.40,89.9796
510.50,90.0131
510.60,90.0467
510.70,90.0787
510.80,90.1031
510.90,90.1306
511.00,90.1550
511.10,90.1810
511.20,90.2084
511.30,90.2435
511.40,90.2802
511.50,90.3137
511.60,90.3458
511.70,90.3793
511.80,90.4129
511.90,90.4449
512.00,90.4755
512.10,90.5060
512.20,90.5365
512.30,90.5685
512.40,90.5945
512.50,90.6281
512.60,90.6647
512.70,90.6937
512.80,90.7272
512.90,90.7593
513.00,90.7944
513.10,90.8218
513.20,90.8478
513.30,90.8722
513.40,90.8981
513.50,90.9241
513.60,90.9546
513.70,90.9851
513.80,91.0187
513.90,91.0507
514.00,91.0858
514.10,91.1133
514.20,91.1392
514.30,91.1697
514.40,91.2018
514.50,91.2262
514.60,91.2613
514.70,91.2964
514.80,91.3345
514.90,91.3651
515.00,91.3956
515.10,91.4230
515.20,91.4444
515.30,91.4688
515.40,91.4948
515.50,91.5268
515.60,91.5558
515.70,91.5894
515.80,91.6214
515.90,91.6504
516.00,91.6794
516.10,91.7114
516.20,91.7404
516.30,91.7694
516.40,91.7999
516.50,91.8304
516.60,91.8549
516.70,91.8793
516.80,91.9098
516.90,91.9388
517.00,91.9662
517.10,91.9968
517.20,92.0364
517.30,92.0700
517.40,92.1036
517.50,92.1387
517.60,92.1753
517.70,92.2104
517.80,92.2394
517.90,92.2684
518.00,92.2943
518.10,92.3157
518.20,92.3386
518.30,92.3645
518.40,92.3874
518.50,92.4088
518.60,92.4377
518.70,92.4667
518.80,92.4927
518.90,92.5217
519.00,92.5491
519.10,92.5797
519.20,92.6086
519.30,92.6361
519.40,92.6636
519.50,92.6926
519.60,92.7216
519.70,92.7551
519.80,92.7856
519.90,92.8146
520.00,92.8452
520.10,92.8711
520.20,92.8970
520.30,92.9184
520.40,92.9443
520.50,92.9703
520.60,92.9947
520.70,93.0283
520.80,93.0557
520.90,93.0817
521.00,93.1107
521.10,93.1351
521.20,93.1564
521.30,93.1824
521.40,93.2098
521.50,93.2297
521.60,93.2541
521.70,93.2846
521.80,93.3136
521.90,93.3411
522.00,93.3716
522.10,93.3990
522.20,93.4174
522.30,93.4372
522.40,93.4555
522.50,93.4738
522.60,93.4860
522.70,93.5089
522.80,93.5394
522.90,93.5699
523.00,93.5944
523.10,93.6279
523.20,93.6600
523.30,93.6844
523.40,93.7057
523.50,93.7286
523.60,93.7515
523.70,93.7744
523.80,93.7943
523.90,93.8126
524.00,93.8370
524.10,93.8599
524.20,93.8843
524.30,93.9087
524.40,93.9377
524.50,93.9621
524.60,93.9865
524.70,94.0094
524.80,94.0399
524.90,94.0674
525.00,94.0933
525.10,94.1208
525.20,94.1452
525.30,94.1696
525.40,94.1879
525.50,94.2047
525.60,94.2291
525.70,94.2551
525.80,94.2780
525.90,94.3054
526.00,94.3359
526.10,94.3604
526.20,94.3832
526.30,94.4061
526.40,94.4290
526.50,94.4489
526.60,94.4763
526.70,94.5023
526.80,94.5221
526.90,94.5480
527.00,94.5786
527.10,94.6014
527.20,94.6228
527.30,94.6457
527.40,94.6762
527.50,94.7006
527.60,94.7281
527.70,94.7479
527.80,94.7693
527.90,94.7922
528.00,94.8074
528.10,94.8212
528.20,94.8380
528.30,94.8593
528.40,94.8807
528.50,94.9036
528.60,94.9310
528.70,94.9539
528.80,94.9799
528.90,95.0043
529.00,95.0287
529.10,95.0470
529.20,95.0668
529.30,95.0882
529.40,95.1080
529.50,95.1324
529.60,95.1508
529.70,95.1721
529.80,95.1950
529.90,95.2164
530.00,95.2347
530.10,95.2576
530.20,95.2805
530.30,95.3018
530.40,95.3217
530.50,95.3445
530.60,95.3644
530.70,95.3857
530.80,95.4041
530.90,95.4239
531.00,95.4422
531.10,95.4620
531.20,95.4834
531.30,95.5048
531.40,95.5307
531.50,95.5521
531.60,95.5734
531.70,95.5917
531.80,95.6131
531.90,95.6329
532.00,95.6512
532.10,95.6711
532.20,95.6955
532.30,95.7184
532.40,95.7397
532.50,95.7642
532.60,95.7809
532.70,95.7962
532.80,95.8115
532.90,95.8359
533.00,95.8527
533.10,95.8694
533.20,95.8908
533.30,95.9152
533.40,95.9351
533.50,95.9534
533.60,95.9717
533.70,95.9946
533.80,96.0205
533.90,96.0434
534.00,96.0602
534.10,96.0815
534.20,96.0983
534.30,96.1166
534.40,96.1349
534.50,96.1548
534.60,96.1777
534.70,96.2006
534.80,96.2234
534.90,96.2418
535.00,96.2631
535.10,96.2891
535.20,96.3150
535.30,96.3409
535.40,96.3715
535.50,96.3974
535.60,96.4218
535.70,96.4386
535.80,96.4539
535.90,96.4752
536.00,96.4951
536.10,96.5118
536.20,96.5256
536.30,96.5469
536.40,96.5561
536.50,96.5637
536.60,96.5698
536.70,96.5775
536.80,96.5881
536.90,96.6003
537.00,96.6110
537.10,96.6248
537.20,96.6385
537.30,96.6553
537.40,96.6705
537.50,96.6858
537.60,96.7041
537.70,96.7239
537.80,96.7422
537.90,96.7590
538.00,96.7743
538.10,96.7911
538.20,96.8079
538.30,96.8216
538.40,96.8399
538.50,96.8597
538.60,96.8781
538.70,96.8979
538.80,96.9116
538.90,96.9208
539.00,96.9360
539.10,96.9574
539.20,96.9772
539.30,97.0001
539.40,97.0245
539.50,97.0490
539.60,97.0673
539.70,97.0825
539.80,97.0947
539.90,97.1130
540.00,97.1268
540.10,97.1375
540.20,97.1497
540.30,97.1619
540.40,97.1771
540.50,97.1893
540.60,97.2061
540.70,97.2214
540.80,97.2351
540.90,97.2473
541.00,97.2610
541.10,97.2778
541.20,97.2916
541.30,97.3083
541.40,97.3297
541.50,97.3557
541.60,97.3694
541.70,97.3892
541.80,97.4045
541.90,97.4182
542.00,97.4304
542.10,97.4472
542.20,97.4640
542.30,97.4823
542.40,97.5082
542.50,97.5296
542.60,97.5479
542.70,97.5616
542.80,97.5723
542.90,97.5906
543.00,97.6074
543.10,97.6242
543.20,97.6440
543.30,97.6669
543.40,97.6852
543.50,97.6944
543.60,97.7005
543.70,97.7051
543.80,97.7112
543.90,97.7173
544.00,97.7280
544.10,97.7448
544.20,97.7676
544.30,97.7859
544.40,97.8043
544.50,97.8226
544.60,97.8363
544.70,97.8531
544.80,97.8714
544.90,97.8897
545.00,97.9034
545.10,97.9187
545.20,97.9294
545.30,97.9324
545.40,97.9385
545.50,97.9477
545.60,97.9614
545.70,97.9721
545.80,97.9874
545.90,98.0026
546.00,98.0255
546.10,98.0392
546.20,98.0515
546.30,98.0621
546.40,98.0743
546.50,98.0820
546.60,98.0911
546.70,98.1033
546.80,98.1155
546.90,98.1232
547.00,98.1339
547.10,98.1461
547.20,98.1613
547.30,98.1705
547.40,98.1857
547.50,98.2010
547.60,98.2193
547.70,98.2346
547.80,98.2498
547.90,98.2681
548.00,98.2849
548.10,98.2971
548.20,98.3063
548.30,98.3154
548.40,98.3276
548.50,98.3353
548.60,98.3444
548.70,98.3597
548.80,98.3719
548.90,98.3810
549.00,98.3902
549.10,98.3994
549.20,98.4055
549.30,98.4131
549.40,98.4207
549.50,98.4283
549.60,98.4390
549.70,98.4467
549.80,98.4573
549.90,98.4711
550.00,98.4833
550.10,98.4909
550.20,98.5001
550.30,98.5107
550.40,98.5184
550.50,98.5260
550.60,98.5367
550.70,98.5458
550.80,98.5519
550.90,98.5611
551.00,98.5748
551.10,98.5870
551.20,98.5977
551.30,98.6084
551.40,98.6191
551.50,98.6282
551.60,98.6389
551.70,98.6526
551.80,98.6664
551.90,98.6801
552.00,98.6969
552.10,98.7167
552.20,98.7305
552.30,98.7457
552.40,98.7625
552.50,98.7778
552.60,98.7915
552.70,98.8007
552.80,98.8113
552.90,98.8235
553.00,98.8327
553.10,98.8388
553.20,98.8419
553.30,98.8480
553.40,98.8556
553.50,98.8586
553.60,98.8617
553.70,98.8647
553.80,98.8724
553.90,98.8770
554.00,98.8831
554.10,98.8907
554.20,98.9044
554.30,98.9166
554.40,98.9243
554.50,98.9319
554.60,98.9395
554.70,98.9502
554.80,98.9609
554.90,98.9670
555.00,98.9807
555.10,98.9944
555.20,99.0067
555.30,99.0143
555.40,99.0250
555.50,99.0341
555.60,99.0433
555.70,99.0540
555.80,99.0707
555.90,99.0799
556.00,99.0875
556.10,99.0967
556.20,99.1013
556.30,99.1043
556.40,99.1104
556.50,99.1196
556.60,99.1348
556.70,99.1440
556.80,99.1531
556.90,99.1684
557.00,99.1760
557.10,99.1821
557.20,99.1867
557.30,99.1898
557.40,99.1928
557.50,99.1943
557.60,99.2004
557.70,99.2081
557.80,99.2188
557.90,99.2264
558.00,99.2325
558.10,99.2432
558.20,99.2554
558.30,99.2630
558.40,99.2706
558.50,99.2767
558.60,99.2859
558.70,99.2889
558.80,99.2935
558.90,99.3011
559.00,99.3073
559.10,99.3164
559.20,99.3225
559.30,99.3301
559.40,99.3362
559.50,99.3454
559.60,99.3530
559.70,99.3607
559.80,99.3698
559.90,99.3774
560.00,99.3866
560.10,99.3973
560.20,99.4064
560.30,99.4110
560.40,99.4186
560.50,99.4278
560.60,99.4354
560.70,99.4431
560.80,99.4507
560.90,99.4629
561.00,99.4690
561.10,99.4781
561.20,99.4873
561.30,99.4919
561.40,99.4995
561.50,99.5071
561.60,99.5102
561.70,99.5117
561.80,99.5178
561.90,99.5239
562.00,99.5255
562.10,99.5300
562.20,99.5392
562.30,99.5499
562.40,99.5575
562.50,99.5651
562.60,99.5789
562.70,99.5865
562.80,99.5880
562.90,99.5895
563.00,99.5926
563.10,99.5911
563.20,99.5911
563.30,99.5987
563.40,99.6048
563.50,99.6140
563.60,99.6201
563.70,99.6262
563.80,99.6292
563.90,99.6307
564.00,99.6307
564.10,99.6292
564.20,99.6338
564.30,99.6384
564.40,99.6429
564.50,99.6445
564.60,99.6521
564.70,99.6536
564.80,99.6552
564.90,99.6597
565.00,99.6719
565.10,99.6796
565.20,99.6857
565.30,99.6994
565.40,99.7040
565.50,99.7086
565.60,99.7101
565.70,99.7147
565.80,99.7192
565.90,99.7223
566.00,99.7330
566.10,99.7421
566.20,99.7513
566.30,99.7574
566.40,99.7665
566.50,99.7726
566.60,99.7742
566.70,99.7803
566.80,99.7833
566.90,99.7849
567.00,99.7894
567.10,99.7955
567.20,99.8032
567.30,99.8154
567.40,99.8260
567.50,99.8352
567.60,99.8459
567.70,99.8535
567.80,99.8581
567.90,99.8535
568.00,99.8566
568.10,99.8627
568.20,99.8688
568.30,99.8764
568.40,99.8825
568.50,99.8886
568.60,99.8932
568.70,99.8947
568.80,99.8993
568.90,99.9069
569.00,99.9161
569.10,99.9207
569.20,99.9222
569.30,99.9252
569.40,99.9237
569.50,99.9191
569.60,99.9191
569.70,99.9283
569.80,99.9359
569.90,99.9435
570.00,99.9496
570.10,99.9573
570.20,99.9603
570.30,99.9588
570.40,99.9573
570.50,99.9588
570.60,99.9619
570.70,99.9710
570.80,99.9756
570.90,99.9786
571.00,99.9817
571.10,99.9847
571.20,99.9863
571.30,99.9863
571.40,99.9985
571.50,100.0107
571.60,100.0137
571.70,100.0092
571.80,100.0122
571.90,100.0076
572.00,100.0000
572.10,99.9954
572.20,99.9969
572.30,100.0046
572.40,100.0092
572.50,100.0183
572.60,100.0229
572.70,100.0320
572.80,100.0336
572.90,100.0336
573.00,100.0366
573.10,100.0351
573.20,100.0351
573.30,100.0381
573.40,100.0427
573.50,100.0381
573.60,100.0397
573.70,100.0427
573.80,100.0504
573.90,100.0549
574.00,100.0610
574.10,100.0702
574.20,100.0778
574.30,100.0839
574.40,100.0809
574.50,100.0885
574.60,100.0977
574.70,100.1007
574.80,100.1007
574.90,100.1053
575.00,100.1068
575.10,100.1129
575.20,100.1144
575.30,100.1175
575.40,100.1236
575.50,100.1373
575.60,100.1450
575.70,100.1480
575.80,100.1526
575.90,100.1572
576.00,100.1587
576.10,100.1541
576.20,100.1526
576.30,100.1511
576.40,100.1526
576.50,100.1511
576.60,100.1495
576.70,100.1495
576.80,100.1526
576.90,100.1511
577.00,100.1511
577.10,100.1541
577.20,100.1587
577.30,100.1602
577.40,100.1602
577.50,100.1602
577.60,100.1587
577.70,100.1587
577.80,100.1617
577.90,100.1709
578.00,100.1785
578.10,100.1877
578.20,100.1938
578.30,100.1968
578.40,100.1968
578.50,100.1968
578.60,100.1968
578.70,100.1938
578.80,100.1968
578.90,100.1984
579.00,100.2014
579.10,100.2075
579.20,100.2136
579.30,100.2167
579.40,100.2197
579.50,100.2213
579.60,100.2182
579.70,100.2167
579.80,100.2182
579.90,100.2197
580.00,100.2258
580.10,100.2304
580.20,100.2426
580.30,100.2502
580.40,100.2594
580.50,100.2625
580.60,100.2655
580.70,100.2686
580.80,100.2640
580.90,100.2594
581.00,100.2594
581.10,100.2609
581.20,100.2625
581.30,100.2594
581.40,100.2609
581.50,100.2579
581.60,100.2502
581.70,100.2472
581.80,100.2441
581.90,100.2457
582.00,100.2472
582.10,100.2563
582.20,100.2579
582.30,100.2640
582.40,100.2686
582.50,100.2716
582.60,100.2747
582.70,100.2762
582.80,100.2823
582.90,100.2838
583.00,100.2838
583.10,100.2838
583.20,100.2884
583.30,100.2975
583.40,100.3006
583.50,100.3098
583.60,100.3143
583.70,100.3189
583.80,100.3174
583.90,100.3174
584.00,100.3189
584.10,100.3189
584.20,100.3204
584.30,100.3174
584.40,100.3128
584.50,100.3082
584.60,100.3052
584.70,100.3067
584.80,100.3067
584.90,100.3082
585.00,100.3067
585.10,100.3082
585.20,100.3067
585.30,100.3021
585.40,100.2975
585.50,100.2975
585.60,100.3006
585.70,100.2930
585.80,100.2960
585.90,100.2960
586.00,100.2975
586.10,100.3006
586.20,100.3036
586.30,100.3052
586.40,100.3098
586.50,100.3159
586.60,100.3143
586.70,100.3113
586.80,100.3128
586.90,100.3082
587.00,100.3052
587.10,100.3052
587.20,100.3113
587.30,100.3159
587.40,100.3204
587.50,100.3250
587.60,100.3311
587.70,100.3342
587.80,100.3372
587.90,100.3387
588.00,100.3403
588.10,100.3418
588.20,100.3433
588.30,100.3433
588.40,100.3479
588.50,100.3525
588.60,100.3586
588.70,100.3632
588.80,100.3647
588.90,100.3677
589.00,100.3677
589.10,100.3677
589.20,100.3647
589.30,100.3616
589.40,100.3601
589.50,100.3571
589.60,100.3525
589.70,100.3494
589.80,100.3464
589.90,100.3418
590.00,100.3387
590.10,100.3418
590.20,100.3418
590.30,100.3433
590.40,100.3418
590.50,100.3418
590.60,100.3387
590.70,100.3372
590.80,100.3357
590.90,100.3372
591.00,100.3418
591.10,100.3418
591.20,100.3403
591.30,100.3403
591.40,100.3433
591.50,100.3464
591.60,100.3525
591.70,100.3571
591.80,100.3647
591.90,100.3662
592.00,100.3647
592.10,100.3632
592.20,100.3647
592.30,100.3616
592.40,100.3571
592.50,100.3525
592.60,100.3510
592.70,100.3464
592.80,100.3433
592.90,100.3433
593.00,100.3494
593.10,100.3555
593.20,100.3616
593.30,100.3647
593.40,100.3677
593.50,100.3677
593.60,100.3662
593.70,100.3616
593.80,100.3616
593.90,100.3616
594.00,100.3616
594.10,100.3571
594.20,100.3555
594.30,100.3555
594.40,100.3540
594.50,100.3525
594.60,100.3540
594.70,100.3555
594.80,100.3571
594.90,100.3586
595.00,100.3662
595.10,100.3708
595.20,100.3784
595.30,100.3815
595.40,100.3845
595.50,100.3845
595.60,100.3876
595.70,100.3830
595.80,100.3799
595.90,100.3738
596.00,100.3708
596.10,100.3677
596.20,100.3662
596.30,100.3616
596.40,100.3647
596.50,100.3677
596.60,100.3738
596.70,100.3723
596.80,100.3784
596.90,100.3876
597.00,100.3906
597.10,100.3922
597.20,100.3952
597.30,100.3998
597.40,100.3952
597.50,100.3922
597.60,100.3922
597.70,100.3860
597.80,100.3799
597.90,100.3815
598.00,100.3815
598.10,100.3845
598.20,100.3860
598.30,100.3922
598.40,100.3952
598.50,100.3937
598.60,100.3891
598.70,100.3860
598.80,100.3815
598.90,100.3784
599.00,100.3784
599.10,100.3769
599.20,100.3754
599.30,100.3769
599.40,100.3754
599.50,100.3693
599.60,100.3708
599.70,100.3784
599.80,100.3799
599.90,100.3784
600.00,100.3815
600.10,100.3784
600.20,100.3754
600.30,100.3708
600.40,100.3693
600.50,100.3738
600.60,100.3769
600.70,100.3815
600.80,100.3860
600.90,100.3860
601.00,100.3830
601.10,100.3830
601.20,100.3815
601.30,100.3815
601.40,100.3815
601.50,100.3845
601.60,100.3891
601.70,100.3906
601.80,100.3906
601.90,100.3876
602.00,100.3906
602.10,100.3876
602.20,100.3876
602.30,100.3845
602.40,100.3891
602.50,100.3937
602.60,100.3922
602.70,100.3937
602.80,100.3967
602.90,100.3983
603.00,100.3937
603.10,100.3891
603.20,100.3922
603.30,100.3906
603.40,100.3860
603.50,100.3860
603.60,100.3876
603.70,100.3830
603.80,100.3799
603.90,100.3845
604.00,100.3876
604.10,100.3845
604.20,100.3922
604.30,100.4013
604.40,100.4059
604.50,100.4013
604.60,100.4013
604.70,100.4059
604.80,100.4028
604.90,100.3998
605.00,100.3998
605.10,100.4028
605.20,100.4044
605.30,100.4059
605.40,100.4059
605.50,100.4089
605.60,100.4089
605.70,100.4044
605.80,100.4028
605.90,100.3998
606.00,100.4013
606.10,100.4028
606.20,100.4150
606.30,100.4272
606.40,100.4288
606.50,100.4272
606.60,100.4257
606.70,100.4211
606.80,100.4089
606.90,100.4013
607.00,100.4044
607.10,100.4028
607.20,100.4028
607.30,100.4013
607.40,100.4028
607.50,100.4059
607.60,100.4074
607.70,100.4074
607.80,100.4059
607.90,100.4059
608.00,100.3983
608.10,100.3922
608.20,100.3937
608.30,100.3967
608.40,100.3998
608.50,100.4028
608.60,100.4120
608.70,100.4120
608.80,100.4089
608.90,100.4105
609.00,100.4105
609.10,100.4120
609.20,100.4120
609.30,100.4105
609.40,100.4105
609.50,100.4120
609.60,100.4105
609.70,100.4074
609.80,100.4089
609.90,100.4089
610.00,100.4105
610.10,100.4120
610.20,100.4105
610.30,100.4089
610.40,100.4028
610.50,100.3983
610.60,100.3906
610.70,100.3876
610.80,100.3876
610.90,100.3922
611.00,100.3998
611.10,100.4074
611.20,100.4074
611.30,100.4089
611.40,100.4074
611.50,100.4044
611.60,100.3983
611.70,100.3922
611.80,100.3845
611.90,100.3830
612.00,100.3845
612.10,100.3876
612.20,100.3937
612.30,100.4044
612.40,100.4120
612.50,100.4059
612.60,100.3998
612.70,100.3937
612.80,100.3906
612.90,100.3891
613.00,100.3967
613.10,100.4059
613.20,100.4135
613.30,100.4211
613.40,100.4196
613.50,100.4135
613.60,100.4105
613.70,100.4028
613.80,100.4013
613.90,100.4013
614.00,100.3983
614.10,100.3937
614.20,100.3876
614.30,100.3799
614.40,100.3723
614.50,100.3693
614.60,100.3662
614.70,100.3662
614.80,100.3677
614.90,100.3632
615.00,100.3586
615.10,100.3540
615.20,100.3555
615.30,100.3586
615.40,100.3632
615.50,100.3693
615.60,100.3723
615.70,100.3754
615.80,100.3769
615.90,100.3769
616.00,100.3754
616.10,100.3738
616.20,100.3738
616.30,100.3723
616.40,100.3708
616.50,100.3723
616.60,100.3784
616.70,100.3845
616.80,100.3845
616.90,100.3922
617.00,100.3998
617.10,100.4074
617.20,100.4089
617.30,100.4089
617.40,100.4089
617.50,100.4044
617.60,100.3998
617.70,100.3998
617.80,100.4013
617.90,100.3983
618.00,100.3967
618.10,100.3983
618.20,100.3906
618.30,100.3845
618.40,100.3799
618.50,100.3815
618.60,100.3769
618.70,100.3723
618.80,100.3723
618.90,100.3738
619.00,100.3677
619.10,100.3647
619.20,100.3632
619.30,100.3616
619.40,100.3540
619.50,100.3510
619.60,100.3555
619.70,100.3586
619.80,100.3662
619.90,100.3677
620.00,100.3662
620.10,100.3632
620.20,100.3616
620.30,100.3586
620.40,100.3601
620.50,100.3662
620.60,100.3708
620.70,100.3738
620.80,100.3769
620.90,100.3738
621.00,100.3708
621.10,100.3708
621.20,100.3708
621.30,100.3738
621.40,100.3754
621.50,100.3723
621.60,100.3693
621.70,100.3662
621.80,100.3571
621.90,100.3571
622.00,100.3571
622.10,100.3616
622.20,100.3632
622.30,100.3662
622.40,100.3677
622.50,100.3677
622.60,100.3647
622.70,100.3632
622.80,100.3616
622.90,100.3571
623.00,100.3525
623.10,100.3464
623.20,100.3433
623.30,100.3448
623.40,100.3510
623.50,100.3540
623.60,100.3571
623.70,100.3632
623.80,100.3708
623.90,100.3723
624.00,100.3738
624.10,100.3784
624.20,100.3799
624.30,100.3769
624.40,100.3723
624.50,100.3693
624.60,100.3708
624.70,100.3693
624.80,100.3693
624.90,100.3677
625.00,100.3677
625.10,100.3632
625.20,100.3571
625.30,100.3479
625.40,100.3418
625.50,100.3372
625.60,100.3296
625.70,100.3235
625.80,100.3220
625.90,100.3235
626.00,100.3220
626.10,100.3250
626.20,100.3296
626.30,100.3342
626.40,100.3372
626.50,100.3418
626.60,100.3418
626.70,100.3387
626.80,100.3387
626.90,100.3448
627.00,100.3433
627.10,100.3479
627.20,100.3525
627.30,100.3555
627.40,100.3510
627.50,100.3479
627.60,100.3448
627.70,100.3448
627.80,100.3479
627.90,100.3525
628.00,100.3586
628.10,100.3647
628.20,100.3677
628.30,100.3616
628.40,100.3586
628.50,100.3555
628.60,100.3540
628.70,100.3479
628.80,100.3464
628.90,100.3479
629.00,100.3464
629.10,100.3433
629.20,100.3418
629.30,100.3418
629.40,100.3372
629.50,100.3342
629.60,100.3311
629.70,100.3296
629.80,100.3326
629.90,100.3342
630.00,100.3357
630.10,100.3326
630.20,100.3311
630.30,100.3265
630.40,100.3189
630.50,100.3128
630.60,100.3113
630.70,100.3098
630.80,100.3113
630.90,100.3128
631.00,100.3189
631.10,100.3250
631.20,100.3281
631.30,100.3311
631.40,100.3296
631.50,100.3326
631.60,100.3342
631.70,100.3372
631.80,100.3311
631.90,100.3311
632.00,100.3357
632.10,100.3311
632.20,100.3265
632.30,100.3265
632.40,100.3250
632.50,100.3220
632.60,100.3143
632.70,100.3052
632.80,100.2975
632.90,100.2991
633.00,100.3006
633.10,100.3006
633.20,100.3067
633.30,100.3189
633.40,100.3265
633.50,100.3311
633.60,100.3403
633.70,100.3418
633.80,100.3433
633.90,100.3479
634.00,100.3494
634.10,100.3464
634.20,100.3479
634.30,100.3464
634.40,100.3464
634.50,100.3418
634.60,100.3372
634.70,100.3311
634.80,100.3311
634.90,100.3296
635.00,100.3296
635.10,100.3250
635.20,100.3204
635.30,100.3174
635.40,100.3174
635.50,100.3174
635.60,100.3128
635.70,100.3143
635.80,100.3204
635.90,100.3250
636.00,100.3311
636.10,100.3357
636.20,100.3418
636.30,100.3403
636.40,100.3372
636.50,100.3357
636.60,100.3342
636.70,100.3296
636.80,100.3265
636.90,100.3296
637.00,100.3281
637.10,100.3281
637.20,100.3265
637.30,100.3311
637.40,100.3296
637.50,100.3265
637.60,100.3220
637.70,100.3189
637.80,100.3159
637.90,100.3174
638.00,100.3204
638.10,100.3220
638.20,100.3281
638.30,100.3357
638.40,100.3387
638.50,100.3326
638.60,100.3296
638.70,100.3326
638.80,100.3311
638.90,100.3204
639.00,100.3250
639.10,100.3357
639.20,100.3387
639.30,100.3433
639.40,100.3510
639.50,100.3555
639.60,100.3494
639.70,100.3464
639.80,100.3433
639.90,100.3387
640.00,100.3433
640.10,100.3510
640.20,100.3586
640.30,100.3601
640.40,100.3601
640.50,100.3601
640.60,100.3555
640.70,100.3525
640.80,100.3540
640.90,100.3571
641.00,100.3586
641.10,100.3586
641.20,100.3632
641.30,100.3632
641.40,100.3601
641.50,100.3555
641.60,100.3525
641.70,100.3494
641.80,100.3479
641.90,100.3464
642.00,100.3479
642.10,100.3448
642.20,100.3464
642.30,100.3448
642.40,100.3479
642.50,100.3525
642.60,100.3616
642.70,100.3647
642.80,100.3662
642.90,100.3708
643.00,100.3693
643.10,100.3723
643.20,100.3693
643.30,100.3693
643.40,100.3708
643.50,100.3677
643.60,100.3616
643.70,100.3586
643.80,100.3601
643.90,100.3586
644.00,100.3601
644.10,100.3601
644.20,100.3632
644.30,100.3601
644.40,100.3510
644.50,100.3403
644.60,100.3296
644.70,100.3220
644.80,100.3204
644.90,100.3204
645.00,100.3281
645.10,100.3357
645.20,100.3418
645.30,100.3433
645.40,100.3464
645.50,100.3510
645.60,100.3494
645.70,100.3494
645.80,100.3540
645.90,100.3555
646.00,100.3632
646.10,100.3662
646.20,100.3693
646.30,100.3693
646.40,100.3647
646.50,100.3586
646.60,100.3540
646.70,100.3510
646.80,100.3494
646.90,100.3479
647.00,100.3448
647.10,100.3418
647.20,100.3357
647.30,100.3342
647.40,100.3342
647.50,100.3387
647.60,100.3448
647.70,100.3448
647.80,100.3479
647.90,100.3479
648.00,100.3464
648.10,100.3418
648.20,100.3357
648.30,100.3326
648.40,100.3296
648.50,100.3265
648.60,100.3250
648.70,100.3281
648.80,100.3342
648.90,100.3372
649.00,100.3403
649.10,100.3494
649.20,100.3540
649.30,100.3571
649.40,100.3601
649.50,100.3616
649.60,100.3647
649.70,100.3662
649.80,100.3677
649.90,100.3677
650.00,100.3693
