"ST3 - RawData"
"Wavelength nm.","T%"
420.00,61.9446
420.10,62.0316
420.20,62.1567
420.30,62.3077
420.40,62.4725
420.50,62.6328
420.60,62.7914
420.70,62.9456
420.80,63.0890
420.90,63.2294
421.00,63.3682
421.10,63.4964
421.20,63.6261
421.30,63.7558
421.40,63.8855
421.50,64.0091
421.60,64.1388
421.70,64.2639
421.80,64.3875
421.90,64.5050
422.00,64.6286
422.10,64.7491
422.20,64.8804
422.30,65.0040
422.40,65.1215
422.50,65.2405
422.60,65.3564
422.70,65.4709
422.80,65.5792
422.90,65.6937
423.00,65.8066
423.10,65.9164
423.20,66.0141
423.30,66.1133
423.40,66.2109
423.50,66.3071
423.60,66.3971
423.70,66.4871
423.80,66.5833
423.90,66.6779
424.00,66.7679
424.10,66.8533
424.20,66.9449
424.30,67.0364
424.40,67.1249
424.50,67.2104
424.60,67.2989
424.70,67.3874
424.80,67.4698
424.90,67.5476
425.00,67.6224
425.10,67.6926
425.20,67.7673
425.30,67.8360
425.40,67.9047
425.50,67.9749
425.60,68.0374
425.70,68.1030
425.80,68.1610
425.90,68.2220
426.00,68.2800
426.10,68.3426
426.20,68.3975
426.30,68.4525
426.40,68.5028
426.50,68.5516
426.60,68.6020
426.70,68.6493
426.80,68.6935
426.90,68.7439
427.00,68.7927
427.10,68.8339
427.20,68.8782
427.30,68.9270
427.40,68.9682
427.50,69.0109
427.60,69.0475
427.70,69.0826
427.80,69.1208
427.90,69.1544
428.00,69.1879
428.10,69.2215
428.20,69.2566
428.30,69.2947
428.40,69.3298
428.50,69.3604
428.60,69.3893
428.70,69.4168
428.80,69.4443
428.90,69.4687
429.00,69.4901
429.10,69.5084
429.20,69.5313
429.30,69.5511
429.40,69.5618
429.50,69.5694
429.60,69.5892
429.70,69.6014
429.80,69.6091
429.90,69.6259
430.00,69.6396
430.10,69.6533
430.20,69.6655
430.30,69.6762
430.40,69.6930
430.50,69.6976
430.60,69.7037
430.70,69.7083
430.80,69.7159
430.90,69.7205
431.00,69.7220
431.10,69.7250
431.20,69.7281
431.30,69.7235
431.40,69.7159
431.50,69.7083
431.60,69.7037
431.70,69.6930
431.80,69.6869
431.90,69.6777
432.00,69.6640
432.10,69.6548
432.20,69.6426
432.30,69.6320
432.40,69.6182
432.50,69.6060
432.60,69.5984
432.70,69.5831
432.80,69.5679
432.90,69.5526
433.00,69.5374
433.10,69.5160
433.20,69.4962
433.30,69.4824
433.40,69.4672
433.50,69.4519
433.60,69.4397
433.70,69.4229
433.80,69.4000
433.90,69.3756
434.00,69.3512
434.10,69.3268
434.20,69.2978
434.30,69.2734
434.40,69.2490
434.50,69.2215
434.60,69.1879
434.70,69.1589
434.80,69.1330
434.90,69.1040
435.00,69.0735
435.10,69.0445
435.20,69.0201
435.30,68.9865
435.40,68.9575
435.50,68.9331
435.60,68.9133
435.70,68.8858
435.80,68.8614
435.90,68.8370
436.00,68.8065
436.10,68.7759
436.20,68.7408
436.30,68.7042
436.40,68.6691
436.50,68.6356
436.60,68.5989
436.70,68.5638
436.80,68.5318
436.90,68.4998
437.00,68.4692
437.10,68.4341
437.20,68.3945
437.30,68.3548
437.40,68.3167
437.50,68.2770
437.60,68.2343
437.70,68.1946
437.80,68.1610
437.90,68.1168
438.00,68.0740
438.10,68.0359
438.20,67.9977
438.30,67.9581
438.40,67.9184
438.50,67.8818
438.60,67.8406
438.70,67.8009
438.80,67.7612
438.90,67.7216
439.00,67.6804
439.10,67.6407
439.20,67.6056
439.30,67.5735
439.40,67.5323
439.50,67.4957
439.60,67.4591
439.70,67.4210
439.80,67.3828
439.90,67.3370
440.00,67.2974
440.10,67.2577
440.20,67.2134
440.30,67.1707
440.40,67.1295
440.50,67.0853
440.60,67.0425
440.70,66.9952
440.80,66.9540
440.90,66.9067
441.00,66.8640
441.10,66.8243
441.20,66.7847
441.30,66.7465
441.40,66.7099
441.50,66.6718
441.60,66.6321
441.70,66.5909
441.80,66.5482
441.90,66.5054
442.00,66.4658
442.10,66.4261
442.20,66.3910
442.30,66.3544
442.40,66.3177
442.50,66.2766
442.60,66.2369
442.70,66.1957
442.80,66.1560
442.90,66.1179
443.00,66.0828
443.10,66.0461
443.20,66.0080
443.30,65.9729
443.40,65.9332
443.50,65.8951
443.60,65.8585
443.70,65.8249
443.80,65.7898
443.90,65.7516
444.00,65.7150
444.10,65.6754
444.20,65.6372
444.30,65.5960
444.40,65.5594
444.50,65.5304
444.60,65.4968
444.70,65.4648
444.80,65.4282
444.90,65.3900
445.00,65.3534
445.10,65.3168
445.20,65.2817
445.30,65.2466
445.40,65.2115
445.50,65.1794
445.60,65.1474
445.70,65.1169
445.80,65.0864
445.90,65.0543
446.00,65.0238
446.10,64.9902
446.20,64.9551
446.30,64.9200
446.40,64.8895
446.50,64.8590
446.60,64.8285
446.70,64.7995
446.80,64.7705
446.90,64.7446
447.00,64.7171
447.10,64.6866
447.20,64.6606
447.30,64.6317
447.40,64.6011
447.50,64.5706
447.60,64.5432
447.70,64.5172
447.80,64.4897
447.90,64.4638
448.00,64.4318
448.10,64.4058
448.20,64.3784
448.30,64.3524
448.40,64.3280
448.50,64.3021
448.60,64.2792
448.70,64.2502
448.80,64.2258
448.90,64.1968
449.00,64.1693
449.10,64.1464
449.20,64.1251
449.30,64.1006
449.40,64.0808
449.50,64.0625
449.60,64.0427
449.70,64.0228
449.80,64.0045
449.90,63.9832
450.00,63.9633
450.10,63.9450
450.20,63.9282
450.30,63.9084
450.40,63.8885
450.50,63.8672
450.60,63.8458
450.70,63.8229
450.80,63.8046
450.90,63.7878
451.00,63.7787
451.10,63.7650
451.20,63.7497
451.30,63.7344
451.40,63.7161
451.50,63.7024
451.60,63.6826
451.70,63.6703
451.80,63.6597
451.90,63.6490
452.00,63.6368
452.10,63.6246
452.20,63.6124
452.30,63.5971
452.40,63.5834
452.50,63.5742
452.60,63.5620
452.70,63.5529
452.80,63.5422
452.90,63.5345
453.00,63.5223
453.10,63.5071
453.20,63.4979
453.30,63.4888
453.40,63.4796
453.50,63.4674
453.60,63.4583
453.70,63.4506
453.80,63.4399
453.90,63.4293
454.00,63.4201
454.10,63.4140
454.20,63.4109
454.30,63.4033
454.40,63.3987
454.50,63.3926
454.60,63.3881
454.70,63.3804
454.80,63.3728
454.90,63.3698
455.00,63.3667
455.10,63.3667
455.20,63.3652
455.30,63.3636
455.40,63.3606
455.50,63.3606
455.60,63.3591
455.70,63.3606
455.80,63.3621
455.90,63.3621
456.00,63.3652
456.10,63.3636
456.20,63.3636
456.30,63.3591
456.40,63.3575
456.50,63.3591
456.60,63.3575
456.70,63.3575
456.80,63.3591
456.90,63.3606
457.00,63.3606
457.10,63.3636
457.20,63.3698
457.30,63.3743
457.40,63.3804
457.50,63.3850
457.60,63.3926
457.70,63.3987
457.80,63.4018
457.90,63.4079
458.00,63.4140
458.10,63.4216
458.20,63.4262
458.30,63.4308
458.40,63.4369
458.50,63.4415
458.60,63.4506
458.70,63.4583
458.80,63.4674
458.90,63.4781
459.00,63.4872
459.10,63.4964
459.20,63.5040
459.30,63.5086
459.40,63.5178
459.50,63.5239
459.60,63.5315
459.70,63.5391
459.80,63.5498
459.90,63.5590
460.00,63.5666
460.10,63.5803
460.20,63.5956
460.30,63.6078
460.40,63.6230
460.50,63.6414
460.60,63.6566
460.70,63.6734
460.80,63.6902
460.90,63.7054
461.00,63.7207
461.10,63.7375
461.20,63.7497
461.30,63.7619
461.40,63.7756
461.50,63.7894
461.60,63.8016
461.70,63.8168
461.80,63.8275
461.90,63.8428
462.00,63.8611
462.10,63.8763
462.20,63.8931
462.30,63.9084
462.40,63.9297
462.50,63.9481
462.60,63.9648
462.70,63.9816
462.80,63.9969
462.90,64.0137
463.00,64.0305
463.10,64.0457
463.20,64.0594
463.30,64.0778
463.40,64.0930
463.50,64.1098
463.60,64.1220
463.70,64.1373
463.80,64.1602
463.90,64.1769
464.00,64.1953
464.10,64.2166
464.20,64.2349
464.30,64.2639
464.40,64.2899
464.50,64.3173
464.60,64.3433
464.70,64.3677
464.80,64.3936
464.90,64.4165
465.00,64.4394
465.10,64.4623
465.20,64.4913
465.30,64.5172
465.40,64.5386
465.50,64.5569
465.60,64.5798
465.70,64.5950
465.80,64.6103
465.90,64.6301
466.00,64.6545
466.10,64.6805
466.20,64.7049
466.30,64.7385
466.40,64.7690
466.50,64.7964
466.60,64.8193
466.70,64.8483
466.80,64.8727
466.90,64.8956
467.00,64.9170
467.10,64.9384
467.20,64.9628
467.30,64.9796
467.40,65.0009
467.50,65.0208
467.60,65.0406
467.70,65.0604
467.80,65.0879
467.90,65.1108
468.00,65.1337
468.10,65.1596
468.20,65.1901
468.30,65.2222
468.40,65.2496
468.50,65.2786
468.60,65.3107
468.70,65.3381
468.80,65.3610
468.90,65.3854
469.00,65.4099
469.10,65.4404
469.20,65.4678
469.30,65.4922
469.40,65.5197
469.50,65.5487
469.60,65.5746
469.70,65.5975
469.80,65.6296
469.90,65.6586
470.00,65.6860
470.10,65.7150
470.20,65.7471
470.30,65.7761
470.40,65.8035
470.50,65.8325
470.60,65.8585
470.70,65.8859
470.80,65.9164
470.90,65.9470
471.00,65.9775
471.10,66.0095
471.20,66.0385
471.30,66.0706
471.40,66.0995
471.50,66.1285
471.60,66.1591
471.70,66.1865
471.80,66.2170
471.90,66.2521
472.00,66.2842
472.10,66.3177
472.20,66.3528
472.30,66.3879
472.40,66.4246
472.50,66.4566
472.60,66.4902
472.70,66.5222
472.80,66.5543
472.90,66.5848
473.00,66.6138
473.10,66.6443
473.20,66.6779
473.30,66.7114
473.40,66.7389
473.50,66.7664
473.60,66.7938
473.70,66.8198
473.80,66.8427
473.90,66.8716
474.00,66.9052
474.10,66.9388
474.20,66.9769
474.30,67.0090
474.40,67.0441
474.50,67.0776
474.60,67.1097
474.70,67.1432
474.80,67.1799
474.90,67.2195
475.00,67.2562
475.10,67.2943
475.20,67.3309
475.30,67.3706
475.40,67.4057
475.50,67.4469
475.60,67.4835
475.70,67.5201
475.80,67.5598
475.90,67.5995
476.00,67.6376
476.10,67.6727
476.20,67.7124
476.30,67.7444
476.40,67.7765
476.50,67.8146
476.60,67.8528
476.70,67.8864
476.80,67.9184
476.90,67.9535
477.00,67.9871
477.10,68.0176
477.20,68.0466
477.30,68.0801
477.40,68.1137
477.50,68.1503
477.60,68.1885
477.70,68.2251
477.80,68.2648
477.90,68.3090
478.00,68.3517
478.10,68.3899
478.20,68.4326
478.30,68.4692
478.40,68.5059
478.50,68.5471
478.60,68.5913
478.70,68.6325
478.80,68.6722
478.90,68.7103
479.00,68.7500
479.10,68.7866
479.20,68.8202
479.30,68.8583
479.40,68.8980
479.50,68.9331
479.60,68.9682
479.70,69.0033
479.80,69.0414
479.90,69.0811
480.00,69.1193
480.10,69.1574
480.20,69.1971
480.30,69.2383
480.40,69.2749
480.50,69.3115
480.60,69.3481
480.70,69.3848
480.80,69.4275
480.90,69.4641
481.00,69.5068
481.10,69.5496
481.20,69.5984
481.30,69.6396
481.40,69.6899
481.50,69.7342
481.60,69.7800
481.70,69.8196
481.80,69.8578
481.90,69.8975
482.00,69.9371
482.10,69.9783
482.20,70.0195
482.30,70.0668
482.40,70.1126
482.50,70.1569
482.60,70.1981
482.70,70.2408
482.80,70.2820
482.90,70.3217
483.00,70.3629
483.10,70.4071
483.20,70.4498
483.30,70.4926
483.40,70.5338
483.50,70.5780
483.60,70.6177
483.70,70.6573
483.80,70.7001
483.90,70.7413
484.00,70.7855
484.10,70.8344
484.20,70.8817
484.30,70.9259
484.40,70.9671
484.50,71.0083
484.60,71.0510
484.70,71.0876
484.80,71.1334
484.90,71.1792
485.00,71.2250
485.10,71.2708
485.20,71.3181
485.30,71.3638
485.40,71.4066
485.50,71.4523
485.60,71.4981
485.70,71.5424
485.80,71.5836
485.90,71.6248
486.00,71.6690
486.10,71.7117
486.20,71.7545
486.30,71.7987
486.40,71.8475
486.50,71.8964
486.60,71.9421
486.70,71.9879
486.80,72.0291
486.90,72.0688
487.00,72.1115
487.10,72.1527
487.20,72.1954
487.30,72.2382
487.40,72.2839
487.50,72.3297
487.60,72.3755
487.70,72.4228
487.80,72.4670
487.90,72.5174
488.00,72.5632
488.10,72.6089
488.20,72.6532
488.30,72.6959
488.40,72.7386
488.50,72.7814
488.60,72.8256
488.70,72.8760
488.80,72.9248
488.90,72.9736
489.00,73.0225
489.10,73.0728
489.20,73.1201
489.30,73.1659
489.40,73.2147
489.50,73.2620
489.60,73.3063
489.70,73.3521
489.80,73.3978
489.90,73.4436
490.00,73.4909
490.10,73.5397
490.20,73.5901
490.30,73.6359
490.40,73.6816
490.50,73.7259
490.60,73.7717
490.70,73.8174
490.80,73.8647
490.90,73.9151
491.00,73.9639
491.10,74.0128
491.20,74.0616
491.30,74.1074
491.40,74.1531
491.50,74.2020
491.60,74.2538
491.70,74.2996
491.80,74.3484
491.90,74.3988
492.00,74.4507
492.10,74.4995
492.20,74.5514
492.30,74.6033
492.40,74.6552
492.50,74.7040
492.60,74.7528
492.70,74.8001
492.80,74.8505
492.90,74.9008
493.00,74.9481
493.10,74.9969
493.20,75.0427
493.30,75.0885
493.40,75.1343
493.50,75.1831
493.60,75.2350
493.70,75.2853
493.80,75.3372
493.90,75.3860
494.00,75.4379
494.10,75.4837
494.20,75.5280
494.30,75.5737
494.40,75.6195
494.50,75.6699
494.60,75.7217
494.70,75.7721
494.80,75.8209
494.90,75.8728
495.00,75.9232
495.10,75.9705
495.20,76.0193
495.30,76.0681
495.40,76.1200
495.50,76.1673
495.60,76.2161
495.70,76.2695
495.80,76.3214
495.90,76.3733
496.00,76.4252
496.10,76.4786
496.20,76.5274
496.30,76.5732
496.40,76.6281
496.50,76.6769
496.60,76.7288
496.70,76.7807
496.80,76.8326
496.90,76.8845
497.00,76.9379
497.10,76.9958
497.20,77.0477
497.30,77.0966
497.40,77.1469
497.50,77.1973
497.60,77.2476
497.70,77.2995
497.80,77.3499
497.90,77.4078
498.00,77.4612
498.10,77.5116
498.20,77.5604
498.30,77.6108
498.40,77.6611
498.50,77.7100
498.60,77.7573
498.70,77.8015
498.80,77.8519
498.90,77.9007
499.00,77.9526
499.10,78.0075
499.20,78.0685
499.30,78.1250
499.40,78.1754
499.50,78.2333
499.60,78.2822
499.70,78.3295
499.80,78.3783
499.90,78.4286
500.00,78.4805
500.10,78.5324
500.20,78.5858
500.30,78.6346
500.40,78.6835
500.50,78.7323
500.60,78.7766
500.70,78.8162
500.80,78.8605
500.90,78.9017
501.00,78.9474
501.10,78.9978
501.20,79.0482
501.30,79.0970
501.40,79.1489
501.50,79.1992
501.60,79.2496
501.70,79.2999
501.80,79.3549
501.90,79.4113
502.00,79.4693
502.10,79.5258
502.20,79.5822
502.30,79.6356
502.40,79.6844
502.50,79.7333
502.60,79.7852
502.70,79.8309
502.80,79.8767
502.90,79.9271
503.00,79.9759
503.10,80.0217
503.20,80.0705
503.30,80.1224
503.40,80.1682
503.50,80.2155
503.60,80.2673
503.70,80.3177
503.80,80.3650
503.90,80.4169
504.00,80.4657
504.10,80.5099
504.20,80.5557
504.30,80.6030
504.40,80.6458
504.50,80.6946
504.60,80.7449
504.70,80.7968
504.80,80.8411
504.90,80.8884
505.00,80.9372
505.10,80.9891
505.20,81.0394
505.30,81.0913
505.40,81.1462
505.50,81.1981
505.60,81.2500
505.70,81.2988
505.80,81.3507
505.90,81.4011
506.00,81.4484
506.10,81.4957
506.20,81.5369
506.30,81.5826
506.40,81.6299
506.50,81.6742
506.60,81.7245
506.70,81.7749
506.80,81.8222
506.90,81.8710
507.00,81.9214
507.10,81.9717
507.20,82.0190
507.30,82.0694
507.40,82.1259
507.50,82.1823
507.60,82.2357
507.70,82.2906
507.80,82.3471
507.90,82.3975
508.00,82.4478
508.10,82.4966
508.20,82.5455
508.30,82.5943
508.40,82.6416
508.50,82.6889
508.60,82.7316
508.70,82.7728
508.80,82.8156
508.90,82.8613
509.00,82.9117
509.10,82.9605
509.20,83.0124
509.30,83.0643
509.40,83.1161
509.50,83.1665
509.60,83.2169
509.70,83.2687
509.80,83.3191
509.90,83.3694
510.00,83.4167
510.10,83.4610
510.20,83.5037
510.30,83.5510
510.40,83.5968
510.50,83.6441
510.60,83.6929
510.70,83.7402
510.80,83.7875
510.90,83.8318
511.00,83.8730
511.10,83.9188
511.20,83.9661
511.30,84.0195
511.40,84.0683
511.50,84.1171
511.60,84.1675
511.70,84.2148
511.80,84.2590
511.90,84.2972
512.00,84.3445
512.10,84.3887
512.20,84.4360
512.30,84.4833
512.40,84.5261
512.50,84.5734
512.60,84.6176
512.70,84.6619
512.80,84.7092
512.90,84.7565
513.00,84.8038
513.10,84.8511
513.20,84.9014
513.30,84.9472
513.40,84.9930
513.50,85.0372
513.60,85.0861
513.70,85.1349
513.80,85.1837
513.90,85.2280
514.00,85.2753
514.10,85.3226
514.20,85.3622
514.30,85.4065
514.40,85.4538
514.50,85.5011
514.60,85.5515
514.70,85.6018
514.80,85.6522
514.90,85.6964
515.00,85.7422
515.10,85.7849
515.20,85.8246
515.30,85.8643
515.40,85.9039
515.50,85.9467
515.60,85.9863
515.70,86.0275
515.80,86.0718
515.90,86.1160
516.00,86.1618
516.10,86.2106
516.20,86.2595
516.30,86.3037
516.40,86.3495
516.50,86.3937
516.60,86.4395
516.70,86.4868
516.80,86.5326
516.90,86.5768
517.00,86.6241
517.10,86.6714
517.20,86.7172
517.30,86.7630
517.40,86.8103
517.50,86.8561
517.60,86.9019
517.70,86.9431
517.80,86.9827
517.90,87.0239
518.00,87.0636
518.10,87.1033
518.20,87.1445
518.30,87.1872
518.40,87.2284
518.50,87.2696
518.60,87.3123
518.70,87.3550
518.80,87.3917
518.90,87.4329
519.00,87.4756
519.10,87.5168
519.20,87.5580
519.30,87.6022
519.40,87.6480
519.50,87.6923
519.60,87.7350
519.70,87.7823
519.80,87.8250
519.90,87.8677
520.00,87.9089
520.10,87.9501
520.20,87.9898
520.30,88.0310
520.40,88.0707
520.50,88.1119
520.60,88.1516
520.70,88.1958
520.80,88.2385
520.90,88.2813
521.00,88.3209
521.10,88.3652
521.20,88.4018
521.30,88.4415
521.40,88.4796
521.50,88.5178
521.60,88.5559
521.70,88.5925
521.80,88.6261
521.90,88.6627
522.00,88.7009
522.10,88.7314
522.20,88.7665
522.30,88.8077
522.40,88.8458
522.50,88.8840
522.60,88.9221
522.70,88.9664
522.80,89.0076
522.90,89.0503
523.00,89.0900
523.10,89.1327
523.20,89.1754
523.30,89.2151
523.40,89.2487
523.50,89.2853
523.60,89.3234
523.70,89.3585
523.80,89.3951
523.90,89.4287
524.00,89.4684
524.10,89.5035
524.20,89.5401
524.30,89.5782
524.40,89.6179
524.50,89.6576
524.60,89.7003
524.70,89.7430
524.80,89.7827
524.90,89.8224
525.00,89.8621
525.10,89.9033
525.20,89.9445
525.30,89.9780
525.40,90.0131
525.50,90.0482
525.60,90.0848
525.70,90.1184
525.80,90.1550
525.90,90.1932
526.00,90.2313
526.10,90.2603
526.20,90.2969
526.30,90.3351
526.40,90.3748
526.50,90.4144
526.60,90.4572
526.70,90.4999
526.80,90.5380
526.90,90.5777
527.00,90.6158
527.10,90.6540
527.20,90.6876
527.30,90.7211
527.40,90.7532
527.50,90.7837
527.60,90.8188
527.70,90.8508
527.80,90.8844
527.90,90.9195
528.00,90.9546
528.10,90.9882
528.20,91.0217
528.30,91.0614
528.40,91.0965
528.50,91.1362
528.60,91.1819
528.70,91.2186
528.80,91.2567
528.90,91.2933
529.00,91.3284
529.10,91.3574
529.20,91.3788
529.30,91.4017
529.40,91.4276
529.50,91.4566
529.60,91.4886
529.70,91.5222
529.80,91.5619
529.90,91.6016
530.00,91.6336
530.10,91.6626
530.20,91.6977
530.30,91.7297
530.40,91.7603
530.50,91.7938
530.60,91.8274
530.70,91.8625
530.80,91.8961
530.90,91.9266
531.00,91.9617
531.10,91.9983
531.20,92.0319
531.30,92.0609
531.40,92.0929
531.50,92.1249
531.60,92.1570
531.70,92.1875
531.80,92.2256
531.90,92.2607
532.00,92.2958
532.10,92.3294
532.20,92.3660
532.30,92.4011
532.40,92.4332
532.50,92.4667
532.60,92.4957
532.70,92.5232
532.80,92.5537
532.90,92.5827
533.00,92.6147
533.10,92.6437
533.20,92.6743
533.30,92.7063
533.40,92.7399
533.50,92.7689
533.60,92.8009
533.70,92.8360
533.80,92.8726
533.90,92.8986
534.00,92.9230
534.10,92.9474
534.20,92.9733
534.30,93.0023
534.40,93.0313
534.50,93.0618
534.60,93.1000
534.70,93.1396
534.80,93.1717
534.90,93.1992
535.00,93.2358
535.10,93.2755
535.20,93.3075
535.30,93.3441
535.40,93.3838
535.50,93.4235
535.60,93.4555
535.70,93.4830
535.80,93.5104
535.90,93.5440
536.00,93.5760
536.10,93.6066
536.20,93.6371
536.30,93.6813
536.40,93.7057
536.50,93.7317
536.60,93.7500
536.70,93.7653
536.80,93.7790
536.90,93.7973
537.00,93.8080
537.10,93.8278
537.20,93.8553
537.30,93.8904
537.40,93.9194
537.50,93.9499
537.60,93.9774
537.70,94.0002
537.80,94.0262
537.90,94.0491
538.00,94.0720
538.10,94.0979
538.20,94.1269
538.30,94.1574
538.40,94.1879
538.50,94.2215
538.60,94.2535
538.70,94.2856
538.80,94.3130
538.90,94.3359
539.00,94.3588
539.10,94.3863
539.20,94.4122
539.30,94.4366
539.40,94.4656
539.50,94.4946
539.60,94.5190
539.70,94.5450
539.80,94.5679
539.90,94.5953
540.00,94.6213
540.10,94.6442
540.20,94.6686
540.30,94.6960
540.40,94.7235
540.50,94.7464
540.60,94.7693
540.70,94.7952
540.80,94.8212
540.90,94.8410
541.00,94.8654
541.10,94.8929
541.20,94.9188
541.30,94.9448
541.40,94.9738
541.50,95.0073
541.60,95.0317
541.70,95.0562
541.80,95.0821
541.90,95.1065
542.00,95.1294
542.10,95.1553
542.20,95.1874
542.30,95.2148
542.40,95.2423
542.50,95.2744
542.60,95.2988
542.70,95.3201
542.80,95.3430
542.90,95.3674
543.00,95.3918
543.10,95.4208
543.20,95.4544
543.30,95.4803
543.40,95.5063
543.50,95.5276
543.60,95.5444
543.70,95.5566
543.80,95.5765
543.90,95.5917
544.00,95.6116
544.10,95.6360
544.20,95.6619
544.30,95.6848
544.40,95.7062
544.50,95.7306
544.60,95.7565
544.70,95.7794
544.80,95.8008
544.90,95.8237
545.00,95.8466
545.10,95.8679
545.20,95.8893
545.30,95.9091
545.40,95.9290
545.50,95.9503
545.60,95.9702
545.70,95.9900
545.80,96.0114
545.90,96.0327
546.00,96.0510
546.10,96.0739
546.20,96.0953
546.30,96.1151
546.40,96.1319
546.50,96.1502
546.60,96.1639
546.70,96.1777
546.80,96.1990
546.90,96.2189
547.00,96.2387
547.10,96.2631
547.20,96.2921
547.30,96.3089
547.40,96.3303
547.50,96.3516
547.60,96.3745
547.70,96.3959
547.80,96.4218
547.90,96.4478
548.00,96.4706
548.10,96.4920
548.20,96.5088
548.30,96.5271
548.40,96.5363
548.50,96.5500
548.60,96.5668
548.70,96.5881
548.80,96.6110
548.90,96.6324
549.00,96.6537
549.10,96.6705
549.20,96.6858
549.30,96.6980
549.40,96.7102
549.50,96.7178
549.60,96.7316
549.70,96.7468
549.80,96.7651
549.90,96.7834
550.00,96.8048
550.10,96.8277
550.20,96.8460
550.30,96.8643
550.40,96.8826
550.50,96.8979
550.60,96.9101
550.70,96.9208
550.80,96.9299
550.90,96.9391
551.00,96.9589
551.10,96.9757
551.20,96.9955
551.30,97.0184
551.40,97.0383
551.50,97.0535
551.60,97.0673
551.70,97.0856
551.80,97.1069
551.90,97.1313
552.00,97.1603
552.10,97.1863
552.20,97.2122
552.30,97.2336
552.40,97.2534
552.50,97.2641
552.60,97.2763
552.70,97.2870
552.80,97.2992
552.90,97.3145
553.00,97.3282
553.10,97.3434
553.20,97.3557
553.30,97.3694
553.40,97.3831
553.50,97.3938
553.60,97.4045
553.70,97.4167
553.80,97.4289
553.90,97.4442
554.00,97.4594
554.10,97.4777
554.20,97.4976
554.30,97.5174
554.40,97.5281
554.50,97.5388
554.60,97.5494
554.70,97.5616
554.80,97.5708
554.90,97.5861
555.00,97.6044
555.10,97.6257
555.20,97.6410
555.30,97.6578
555.40,97.6761
555.50,97.6913
555.60,97.7020
555.70,97.7142
555.80,97.7310
555.90,97.7432
556.00,97.7585
556.10,97.7737
556.20,97.7859
556.30,97.7936
556.40,97.8119
556.50,97.8287
556.60,97.8439
556.70,97.8561
556.80,97.8775
556.90,97.8912
557.00,97.9019
557.10,97.9111
557.20,97.9218
557.30,97.9279
557.40,97.9401
557.50,97.9477
557.60,97.9553
557.70,97.9706
557.80,97.9843
557.90,97.9965
558.00,98.0087
558.10,98.0270
558.20,98.0392
558.30,98.0530
558.40,98.0698
558.50,98.0820
558.60,98.0927
558.70,98.0988
558.80,98.1094
558.90,98.1201
559.00,98.1323
559.10,98.1506
559.20,98.1674
559.30,98.1812
559.40,98.1934
559.50,98.2071
559.60,98.2224
559.70,98.2361
559.80,98.2468
559.90,98.2590
560.00,98.2712
560.10,98.2834
560.20,98.2956
560.30,98.3078
560.40,98.3215
560.50,98.3353
560.60,98.3444
560.70,98.3551
560.80,98.3627
560.90,98.3749
561.00,98.3871
561.10,98.4024
561.20,98.4192
561.30,98.4268
561.40,98.4375
561.50,98.4467
561.60,98.4512
561.70,98.4543
561.80,98.4619
561.90,98.4756
562.00,98.4848
562.10,98.4955
562.20,98.5123
562.30,98.5245
562.40,98.5413
562.50,98.5550
562.60,98.5733
562.70,98.5916
562.80,98.6038
562.90,98.6130
563.00,98.6176
563.10,98.6221
563.20,98.6237
563.30,98.6282
563.40,98.6374
563.50,98.6465
563.60,98.6572
563.70,98.6649
563.80,98.6740
563.90,98.6771
564.00,98.6847
564.10,98.6969
564.20,98.7076
564.30,98.7213
564.40,98.7305
564.50,98.7381
564.60,98.7442
564.70,98.7457
564.80,98.7457
564.90,98.7549
565.00,98.7686
565.10,98.7747
565.20,98.7823
565.30,98.7976
565.40,98.8098
565.50,98.8220
565.60,98.8312
565.70,98.8403
565.80,98.8480
565.90,98.8541
566.00,98.8647
566.10,98.8678
566.20,98.8739
566.30,98.8831
566.40,98.8968
566.50,98.9090
566.60,98.9197
566.70,98.9334
566.80,98.9487
566.90,98.9578
567.00,98.9685
567.10,98.9792
567.20,98.9868
567.30,98.9990
567.40,99.0128
567.50,99.0234
567.60,99.0372
567.70,99.0448
567.80,99.0555
567.90,99.0646
568.00,99.0692
568.10,99.0768
568.20,99.0845
568.30,99.0921
568.40,99.0936
568.50,99.1013
568.60,99.1135
568.70,99.1211
568.80,99.1257
568.90,99.1379
569.00,99.1531
569.10,99.1577
569.20,99.1623
569.30,99.1684
569.40,99.1760
569.50,99.1791
569.60,99.1852
569.70,99.1943
569.80,99.2035
569.90,99.2096
570.00,99.2081
570.10,99.2081
570.20,99.2081
570.30,99.2111
570.40,99.2157
570.50,99.2233
570.60,99.2386
570.70,99.2508
570.80,99.2569
570.90,99.2615
571.00,99.2691
571.10,99.2752
571.20,99.2798
571.30,99.2889
571.40,99.2981
571.50,99.3057
571.60,99.3118
571.70,99.3179
571.80,99.3256
571.90,99.3286
572.00,99.3362
572.10,99.3408
572.20,99.3530
572.30,99.3637
572.40,99.3713
572.50,99.3774
572.60,99.3820
572.70,99.3896
572.80,99.3942
572.90,99.3988
573.00,99.4049
573.10,99.4049
573.20,99.4064
573.30,99.4003
573.40,99.3973
573.50,99.3927
573.60,99.3958
573.70,99.4064
573.80,99.4171
573.90,99.4293
574.00,99.4385
574.10,99.4507
574.20,99.4583
574.30,99.4705
574.40,99.4766
574.50,99.4843
574.60,99.4965
574.70,99.5041
574.80,99.5087
574.90,99.5178
575.00,99.5239
575.10,99.5300
575.20,99.5361
575.30,99.5392
575.40,99.5392
575.50,99.5438
575.60,99.5483
575.70,99.5499
575.80,99.5529
575.90,99.5605
576.00,99.5697
576.10,99.5758
576.20,99.5773
576.30,99.5773
576.40,99.5789
576.50,99.5758
576.60,99.5712
576.70,99.5712
576.80,99.5773
576.90,99.5789
577.00,99.5789
577.10,99.5819
577.20,99.5834
577.30,99.5895
577.40,99.5895
577.50,99.5941
577.60,99.5956
577.70,99.6017
577.80,99.6078
577.90,99.6109
578.00,99.6170
578.10,99.6201
578.20,99.6246
578.30,99.6246
578.40,99.6277
578.50,99.6277
578.60,99.6307
578.70,99.6368
578.80,99.6414
578.90,99.6384
579.00,99.6414
579.10,99.6506
579.20,99.6567
579.30,99.6613
579.40,99.6704
579.50,99.6857
579.60,99.6902
579.70,99.6948
579.80,99.7025
579.90,99.7055
580.00,99.7131
580.10,99.7238
580.20,99.7314
580.30,99.7375
580.40,99.7421
580.50,99.7482
580.60,99.7467
580.70,99.7467
580.80,99.7452
580.90,99.7467
581.00,99.7467
581.10,99.7498
581.20,99.7559
581.30,99.7574
581.40,99.7604
581.50,99.7604
581.60,99.7543
581.70,99.7452
581.80,99.7406
581.90,99.7406
582.00,99.7406
582.10,99.7467
582.20,99.7543
582.30,99.7635
582.40,99.7696
582.50,99.7726
582.60,99.7787
582.70,99.7803
582.80,99.7879
582.90,99.7879
583.00,99.7910
583.10,99.7879
583.20,99.7910
583.30,99.8001
583.40,99.8047
583.50,99.8108
583.60,99.8138
583.70,99.8169
583.80,99.8169
583.90,99.8138
584.00,99.8108
584.10,99.8138
584.20,99.8199
584.30,99.8215
584.40,99.8215
584.50,99.8245
584.60,99.8276
584.70,99.8260
584.80,99.8260
584.90,99.8260
585.00,99.8276
585.10,99.8276
585.20,99.8291
585.30,99.8291
585.40,99.8260
585.50,99.8260
585.60,99.8260
585.70,99.8169
585.80,99.8138
585.90,99.8138
586.00,99.8154
586.10,99.8169
586.20,99.8215
586.30,99.8276
586.40,99.8352
586.50,99.8428
586.60,99.8444
586.70,99.8459
586.80,99.8520
586.90,99.8520
587.00,99.8489
587.10,99.8520
587.20,99.8581
587.30,99.8611
587.40,99.8642
587.50,99.8688
587.60,99.8718
587.70,99.8734
587.80,99.8764
587.90,99.8764
588.00,99.8779
588.10,99.8795
588.20,99.8795
588.30,99.8825
588.40,99.8871
588.50,99.8901
588.60,99.8917
588.70,99.8962
588.80,99.8993
588.90,99.8993
589.00,99.8993
589.10,99.8962
589.20,99.8962
589.30,99.8932
589.40,99.8917
589.50,99.8856
589.60,99.8840
589.70,99.8825
589.80,99.8810
589.90,99.8795
590.00,99.8810
590.10,99.8917
590.20,99.8978
590.30,99.8993
590.40,99.8962
590.50,99.8932
590.60,99.8901
590.70,99.8886
590.80,99.8856
590.90,99.8840
591.00,99.8886
591.10,99.8886
591.20,99.8856
591.30,99.8856
591.40,99.8932
591.50,99.8962
591.60,99.8993
591.70,99.9039
591.80,99.9115
591.90,99.9176
592.00,99.9161
592.10,99.9146
592.20,99.9191
592.30,99.9222
592.40,99.9222
592.50,99.9237
592.60,99.9283
592.70,99.9283
592.80,99.9252
592.90,99.9207
593.00,99.9207
593.10,99.9161
593.20,99.9130
593.30,99.9084
593.40,99.9054
593.50,99.9023
593.60,99.9054
593.70,99.9084
593.80,99.9100
593.90,99.9100
594.00,99.9100
594.10,99.9084
594.20,99.9069
594.30,99.9069
594.40,99.9130
594.50,99.9176
594.60,99.9176
594.70,99.9191
594.80,99.9176
594.90,99.9176
595.00,99.9191
595.10,99.9222
595.20,99.9268
595.30,99.9268
595.40,99.9313
595.50,99.9344
595.60,99.9374
595.70,99.9359
595.80,99.9313
595.90,99.9313
596.00,99.9344
596.10,99.9313
596.20,99.9283
596.30,99.9298
596.40,99.9313
596.50,99.9298
596.60,99.9252
596.70,99.9207
596.80,99.9268
596.90,99.9344
597.00,99.9405
597.10,99.9451
597.20,99.9542
597.30,99.9573
597.40,99.9542
597.50,99.9542
597.60,99.9557
597.70,99.9542
597.80,99.9527
597.90,99.9527
598.00,99.9557
598.10,99.9527
598.20,99.9481
598.30,99.9466
598.40,99.9557
598.50,99.9542
598.60,99.9527
598.70,99.9542
598.80,99.9557
598.90,99.9542
599.00,99.9481
599.10,99.9466
599.20,99.9481
599.30,99.9496
599.40,99.9451
599.50,99.9420
599.60,99.9420
599.70,99.9405
599.80,99.9405
599.90,99.9374
600.00,99.9390
600.10,99.9405
600.20,99.9420
600.30,99.9435
600.40,99.9435
600.50,99.9481
600.60,99.9557
600.70,99.9634
600.80,99.9695
600.90,99.9725
601.00,99.9741
601.10,99.9741
601.20,99.9710
601.30,99.9725
601.40,99.9756
601.50,99.9802
601.60,99.9817
601.70,99.9786
601.80,99.9756
601.90,99.9695
602.00,99.9634
602.10,99.9573
602.20,99.9588
602.30,99.9588
602.40,99.9634
602.50,99.9695
602.60,99.9725
602.70,99.9741
602.80,99.9756
602.90,99.9786
603.00,99.9786
603.10,99.9771
603.20,99.9771
603.30,99.9741
603.40,99.9710
603.50,99.9664
603.60,99.9634
603.70,99.9588
603.80,99.9603
603.90,99.9634
604.00,99.9695
604.10,99.9710
604.20,99.9771
604.30,99.9832
604.40,99.9832
604.50,99.9802
604.60,99.9771
604.70,99.9771
604.80,99.9741
604.90,99.9710
605.00,99.9710
605.10,99.9756
605.20,99.9756
605.30,99.9771
605.40,99.9817
605.50,99.9863
605.60,99.9817
605.70,99.9786
605.80,99.9832
605.90,99.9802
606.00,99.9741
606.10,99.9725
606.20,99.9802
606.30,99.9802
606.40,99.9802
606.50,99.9786
606.60,99.9786
606.70,99.9832
606.80,99.9847
606.90,99.9863
607.00,99.9863
607.10,99.9847
607.20,99.9832
607.30,99.9802
607.40,99.9741
607.50,99.9725
607.60,99.9771
607.70,99.9786
607.80,99.9741
607.90,99.9710
608.00,99.9710
608.10,99.9695
608.20,99.9649
608.30,99.9664
608.40,99.9725
608.50,99.9741
608.60,99.9741
608.70,99.9695
608.80,99.9649
608.90,99.9603
609.00,99.9619
609.10,99.9649
609.20,99.9756
609.30,99.9863
609.40,99.9908
609.50,99.9924
609.60,99.9908
609.70,99.9908
609.80,99.9863
609.90,99.9863
610.00,99.9863
610.10,99.9878
610.20,99.9863
610.30,99.9893
610.40,99.9908
610.50,99.9908
610.60,99.9878
610.70,99.9832
610.80,99.9771
610.90,99.9710
611.00,99.9695
611.10,99.9725
611.20,99.9756
611.30,99.9786
611.40,99.9802
611.50,99.9832
611.60,99.9863
611.70,99.9863
611.80,99.9878
611.90,99.9908
612.00,99.9908
612.10,99.9924
612.20,99.9954
612.30,99.9954
612.40,99.9954
612.50,99.9969
612.60,99.9985
612.70,99.9985
612.80,99.9954
612.90,99.9954
613.00,99.9954
613.10,99.9954
613.20,99.9954
613.30,99.9954
613.40,99.9969
613.50,99.9985
613.60,99.9985
613.70,99.9924
613.80,99.9863
613.90,99.9832
614.00,99.9786
614.10,99.9786
614.20,99.9786
614.30,99.9893
614.40,99.9924
614.50,99.9924
614.60,99.9893
614.70,99.9863
614.80,99.9817
614.90,99.9725
615.00,99.9664
615.10,99.9649
615.20,99.9649
615.30,99.9634
615.40,99.9649
615.50,99.9680
615.60,99.9695
615.70,99.9695
615.80,99.9680
615.90,99.9695
616.00,99.9695
616.10,99.9710
616.20,99.9695
616.30,99.9695
616.40,99.9695
616.50,99.9664
616.60,99.9710
616.70,99.9741
616.80,99.9786
616.90,99.9847
617.00,99.9878
617.10,99.9893
617.20,99.9924
617.30,99.9954
617.40,100.0000
617.50,100.0015
617.60,100.0046
617.70,100.0046
617.80,100.0031
617.90,99.9985
618.00,99.9893
618.10,99.9893
618.20,99.9893
618.30,99.9863
618.40,99.9847
618.50,99.9847
618.60,99.9817
618.70,99.9771
618.80,99.9786
618.90,99.9771
619.00,99.9756
619.10,99.9771
619.20,99.9771
619.30,99.9741
619.40,99.9771
619.50,99.9817
619.60,99.9847
619.70,99.9832
619.80,99.9878
619.90,99.9817
620.00,99.9741
620.10,99.9695
620.20,99.9710
620.30,99.9695
620.40,99.9725
620.50,99.9802
620.60,99.9817
620.70,99.9863
620.80,99.9893
620.90,99.9924
621.00,99.9878
621.10,99.9939
621.20,99.9924
621.30,99.9893
621.40,99.9847
621.50,99.9802
621.60,99.9756
621.70,99.9695
621.80,99.9649
621.90,99.9649
622.00,99.9680
622.10,99.9710
622.20,99.9725
622.30,99.9786
622.40,99.9786
622.50,99.9756
622.60,99.9741
622.70,99.9695
622.80,99.9664
622.90,99.9588
623.00,99.9649
623.10,99.9680
623.20,99.9680
623.30,99.9725
623.40,99.9756
623.50,99.9786
623.60,99.9802
623.70,99.9878
623.80,99.9924
623.90,99.9954
624.00,99.9985
624.10,99.9985
624.20,99.9954
624.30,99.9908
624.40,99.9847
624.50,99.9786
624.60,99.9756
624.70,99.9710
624.80,99.9695
624.90,99.9710
625.00,99.9725
625.10,99.9756
625.20,99.9710
625.30,99.9695
625.40,99.9664
625.50,99.9634
625.60,99.9573
625.70,99.9573
625.80,99.9588
625.90,99.9603
626.00,99.9619
626.10,99.9619
626.20,99.9634
626.30,99.9634
626.40,99.9588
626.50,99.9557
626.60,99.9603
626.70,99.9619
626.80,99.9634
626.90,99.9695
627.00,99.9695
627.10,99.9710
627.20,99.9725
627.30,99.9741
627.40,99.9756
627.50,99.9710
627.60,99.9634
627.70,99.9603
627.80,99.9588
627.90,99.9573
628.00,99.9588
628.10,99.9649
628.20,99.9664
628.30,99.9619
628.40,99.9557
628.50,99.9557
628.60,99.9557
628.70,99.9588
628.80,99.9664
628.90,99.9725
629.00,99.9741
629.10,99.9710
629.20,99.9680
629.30,99.9649
629.40,99.9573
629.50,99.9542
629.60,99.9512
629.70,99.9512
629.80,99.9481
629.90,99.9466
630.00,99.9451
630.10,99.9390
630.20,99.9359
630.30,99.9329
630.40,99.9344
630.50,99.9359
630.60,99.9359
630.70,99.9359
630.80,99.9374
630.90,99.9390
631.00,99.9359
631.10,99.9359
631.20,99.9435
631.30,99.9481
631.40,99.9481
631.50,99.9512
631.60,99.9527
631.70,99.9527
631.80,99.9466
631.90,99.9420
632.00,99.9390
632.10,99.9390
632.20,99.9374
632.30,99.9405
632.40,99.9420
632.50,99.9435
632.60,99.9374
632.70,99.9329
632.80,99.9329
632.90,99.9313
633.00,99.9313
633.10,99.9313
633.20,99.9359
633.30,99.9435
633.40,99.9481
633.50,99.9542
633.60,99.9603
633.70,99.9664
633.80,99.9680
633.90,99.9725
634.00,99.9695
634.10,99.9680
634.20,99.9710
634.30,99.9680
634.40,99.9680
634.50,99.9680
634.60,99.9695
634.70,99.9634
634.80,99.9603
634.90,99.9557
635.00,99.9557
635.10,99.9496
635.20,99.9451
635.30,99.9435
635.40,99.9466
635.50,99.9466
635.60,99.9420
635.70,99.9420
635.80,99.9420
635.90,99.9405
636.00,99.9420
636.10,99.9435
636.20,99.9481
636.30,99.9496
636.40,99.9527
636.50,99.9496
636.60,99.9496
636.70,99.9451
636.80,99.9420
636.90,99.9420
637.00,99.9390
637.10,99.9405
637.20,99.9420
637.30,99.9451
637.40,99.9435
637.50,99.9435
637.60,99.9420
637.70,99.9390
637.80,99.9359
637.90,99.9374
638.00,99.9420
638.10,99.9466
638.20,99.9481
638.30,99.9466
638.40,99.9451
638.50,99.9405
638.60,99.9344
638.70,99.9359
638.80,99.9390
638.90,99.9405
639.00,99.9451
639.10,99.9512
639.20,99.9481
639.30,99.9496
639.40,99.9496
639.50,99.9512
639.60,99.9481
639.70,99.9481
639.80,99.9512
639.90,99.9527
640.00,99.9542
640.10,99.9557
640.20,99.9603
640.30,99.9603
640.40,99.9588
640.50,99.9573
640.60,99.9542
640.70,99.9542
640.80,99.9542
640.90,99.9527
641.00,99.9527
641.10,99.9557
641.20,99.9557
641.30,99.9512
641.40,99.9496
641.50,99.9481
641.60,99.9466
641.70,99.9435
641.80,99.9405
641.90,99.9390
642.00,99.9420
642.10,99.9420
642.20,99.9466
642.30,99.9496
642.40,99.9542
642.50,99.9557
642.60,99.9588
642.70,99.9588
642.80,99.9573
642.90,99.9573
643.00,99.9573
643.10,99.9542
643.20,99.9466
643.30,99.9451
643.40,99.9390
643.50,99.9329
643.60,99.9298
643.70,99.9252
643.80,99.9252
643.90,99.9283
644.00,99.9329
644.10,99.9329
644.20,99.9359
644.30,99.9359
644.40,99.9268
644.50,99.9191
644.60,99.9100
644.70,99.9023
644.80,99.9008
644.90,99.8978
645.00,99.9008
645.10,99.9084
645.20,99.9146
645.30,99.9222
645.40,99.9283
645.50,99.9390
645.60,99.9435
645.70,99.9481
645.80,99.9557
645.90,99.9588
646.00,99.9634
646.10,99.9573
646.20,99.9481
646.30,99.9420
646.40,99.9329
646.50,99.9252
646.60,99.9207
646.70,99.9176
646.80,99.9146
646.90,99.9161
647.00,99.9176
647.10,99.9161
647.20,99.9176
647.30,99.9252
647.40,99.9283
647.50,99.9283
647.60,99.9313
647.70,99.9283
647.80,99.9298
647.90,99.9237
648.00,99.9191
648.10,99.9161
648.20,99.9161
648.30,99.9161
648.40,99.9161
648.50,99.9161
648.60,99.9176
648.70,99.9176
648.80,99.9268
648.90,99.9283
649.00,99.9298
649.10,99.9374
649.20,99.9374
649.30,99.9329
649.40,99.9313
649.50,99.9344
649.60,99.9405
649.70,99.9435
649.80,99.9496
649.90,99.9557
650.00,99.9588
