"ST4 - RawData"
"Wavelength nm.","T%"
420.00,52.8824
420.10,52.9907
420.20,53.1387
420.30,53.3173
420.40,53.5019
420.50,53.6804
420.60,53.8513
420.70,54.0161
420.80,54.1748
420.90,54.3274
421.00,54.4800
421.10,54.6295
421.20,54.7821
421.30,54.9316
421.40,55.0842
421.50,55.2322
421.60,55.3787
421.70,55.5222
421.80,55.6641
421.90,55.8044
422.00,55.9402
422.10,56.0806
422.20,56.2210
422.30,56.3568
422.40,56.4896
422.50,56.6238
422.60,56.7535
422.70,56.8848
422.80,57.0114
422.90,57.1320
423.00,57.2556
423.10,57.3792
423.20,57.4966
423.30,57.6096
423.40,57.7240
423.50,57.8384
423.60,57.9498
423.70,58.0597
423.80,58.1726
423.90,58.2870
424.00,58.3923
424.10,58.4961
424.20,58.5999
424.30,58.7036
424.40,58.8058
424.50,58.9096
424.60,59.0118
424.70,59.1125
424.80,59.2087
424.90,59.2972
425.00,59.3887
425.10,59.4788
425.20,59.5673
425.30,59.6466
425.40,59.7214
425.50,59.8007
425.60,59.8724
425.70,59.9426
425.80,60.0189
425.90,60.0876
426.00,60.1532
426.10,60.2203
426.20,60.2844
426.30,60.3455
426.40,60.4034
426.50,60.4721
426.60,60.5362
426.70,60.5942
426.80,60.6537
426.90,60.7162
427.00,60.7697
427.10,60.8215
427.20,60.8780
427.30,60.9299
427.40,60.9726
427.50,61.0168
427.60,61.0611
427.70,61.1008
427.80,61.1404
427.90,61.1816
428.00,61.2259
428.10,61.2686
428.20,61.3098
428.30,61.3510
428.40,61.3922
428.50,61.4273
428.60,61.4609
428.70,61.4899
428.80,61.5219
428.90,61.5463
429.00,61.5707
429.10,61.5906
429.20,61.6135
429.30,61.6333
429.40,61.6531
429.50,61.6699
429.60,61.6867
429.70,61.7050
429.80,61.7142
429.90,61.7294
430.00,61.7401
430.10,61.7569
430.20,61.7691
430.30,61.7798
430.40,61.7905
430.50,61.8011
430.60,61.8073
430.70,61.8088
430.80,61.8164
430.90,61.8210
431.00,61.8225
431.10,61.8225
431.20,61.8210
431.30,61.8164
431.40,61.8057
431.50,61.7950
431.60,61.7905
431.70,61.7813
431.80,61.7737
431.90,61.7661
432.00,61.7569
432.10,61.7432
432.20,61.7325
432.30,61.7218
432.40,61.7050
432.50,61.6882
432.60,61.6760
432.70,61.6592
432.80,61.6394
432.90,61.6196
433.00,61.5982
433.10,61.5784
433.20,61.5585
433.30,61.5387
433.40,61.5173
433.50,61.4990
433.60,61.4777
433.70,61.4502
433.80,61.4227
433.90,61.3983
434.00,61.3693
434.10,61.3373
434.20,61.3113
434.30,61.2793
434.40,61.2473
434.50,61.2122
434.60,61.1786
434.70,61.1481
434.80,61.1160
434.90,61.0779
435.00,61.0443
435.10,61.0107
435.20,60.9756
435.30,60.9375
435.40,60.9070
435.50,60.8810
435.60,60.8475
435.70,60.8124
435.80,60.7803
435.90,60.7498
436.00,60.7117
436.10,60.6720
436.20,60.6339
436.30,60.5927
436.40,60.5499
436.50,60.5087
436.60,60.4660
436.70,60.4248
436.80,60.3867
436.90,60.3455
437.00,60.3043
437.10,60.2661
437.20,60.2234
437.30,60.1776
437.40,60.1334
437.50,60.0891
437.60,60.0372
437.70,59.9869
437.80,59.9426
437.90,59.8953
438.00,59.8480
438.10,59.8022
438.20,59.7580
438.30,59.7092
438.40,59.6649
438.50,59.6207
438.60,59.5749
438.70,59.5306
438.80,59.4864
438.90,59.4360
439.00,59.3872
439.10,59.3399
439.20,59.2941
439.30,59.2529
439.40,59.2117
439.50,59.1721
439.60,59.1278
439.70,59.0881
439.80,59.0424
439.90,58.9905
440.00,58.9355
440.10,58.8821
440.20,58.8242
440.30,58.7646
440.40,58.7112
440.50,58.6624
440.60,58.6136
440.70,58.5632
440.80,58.5159
440.90,58.4702
441.00,58.4167
441.10,58.3694
441.20,58.3237
441.30,58.2764
441.40,58.2306
441.50,58.1818
441.60,58.1375
441.70,58.0902
441.80,58.0460
441.90,57.9987
442.00,57.9514
442.10,57.9071
442.20,57.8598
442.30,57.8125
442.40,57.7667
442.50,57.7194
442.60,57.6767
442.70,57.6340
442.80,57.5867
442.90,57.5439
443.00,57.5012
443.10,57.4615
443.20,57.4173
443.30,57.3776
443.40,57.3349
443.50,57.2891
443.60,57.2403
443.70,57.1899
443.80,57.1426
443.90,57.0953
444.00,57.0511
444.10,57.0084
444.20,56.9687
444.30,56.9321
444.40,56.8924
444.50,56.8512
444.60,56.8100
444.70,56.7703
444.80,56.7261
444.90,56.6864
445.00,56.6467
445.10,56.6071
445.20,56.5643
445.30,56.5262
445.40,56.4880
445.50,56.4468
445.60,56.4087
445.70,56.3736
445.80,56.3385
445.90,56.2973
446.00,56.2607
446.10,56.2225
446.20,56.1859
446.30,56.1478
446.40,56.1096
446.50,56.0745
446.60,56.0410
446.70,56.0059
446.80,55.9723
446.90,55.9387
447.00,55.9052
447.10,55.8716
447.20,55.8365
447.30,55.8044
447.40,55.7693
447.50,55.7343
447.60,55.7053
447.70,55.6717
447.80,55.6396
447.90,55.6076
448.00,55.5771
448.10,55.5450
448.20,55.5145
448.30,55.4871
448.40,55.4611
448.50,55.4291
448.60,55.3970
448.70,55.3650
448.80,55.3329
448.90,55.3009
449.00,55.2704
449.10,55.2444
449.20,55.2185
449.30,55.1926
449.40,55.1666
449.50,55.1407
449.60,55.1193
449.70,55.0964
449.80,55.0735
449.90,55.0461
450.00,55.0247
450.10,55.0003
450.20,54.9759
450.30,54.9530
450.40,54.9347
450.50,54.9133
450.60,54.8981
450.70,54.8752
450.80,54.8584
450.90,54.8370
451.00,54.8172
451.10,54.7989
451.20,54.7775
451.30,54.7607
451.40,54.7409
451.50,54.7241
451.60,54.7043
451.70,54.6860
451.80,54.6722
451.90,54.6555
452.00,54.6417
452.10,54.6310
452.20,54.6173
452.30,54.6036
452.40,54.5914
452.50,54.5761
452.60,54.5609
452.70,54.5486
452.80,54.5319
452.90,54.5151
453.00,54.5013
453.10,54.4876
453.20,54.4754
453.30,54.4632
453.40,54.4556
453.50,54.4510
453.60,54.4434
453.70,54.4342
453.80,54.4250
453.90,54.4159
454.00,54.4052
454.10,54.3976
454.20,54.3884
454.30,54.3839
454.40,54.3777
454.50,54.3747
454.60,54.3686
454.70,54.3625
454.80,54.3564
454.90,54.3549
455.00,54.3488
455.10,54.3472
455.20,54.3411
455.30,54.3335
455.40,54.3289
455.50,54.3289
455.60,54.3259
455.70,54.3243
455.80,54.3274
455.90,54.3274
456.00,54.3289
456.10,54.3304
456.20,54.3320
456.30,54.3274
456.40,54.3289
456.50,54.3289
456.60,54.3289
456.70,54.3274
456.80,54.3320
456.90,54.3335
457.00,54.3320
457.10,54.3365
457.20,54.3396
457.30,54.3427
457.40,54.3457
457.50,54.3518
457.60,54.3579
457.70,54.3640
457.80,54.3686
457.90,54.3762
458.00,54.3839
458.10,54.3915
458.20,54.3945
458.30,54.4006
458.40,54.4052
458.50,54.4098
458.60,54.4189
458.70,54.4296
458.80,54.4388
458.90,54.4479
459.00,54.4586
459.10,54.4647
459.20,54.4724
459.30,54.4800
459.40,54.4891
459.50,54.4998
459.60,54.5090
459.70,54.5197
459.80,54.5303
459.90,54.5425
460.00,54.5547
460.10,54.5685
460.20,54.5868
460.30,54.6036
460.40,54.6188
460.50,54.6371
460.60,54.6539
460.70,54.6738
460.80,54.6890
460.90,54.7028
461.00,54.7226
461.10,54.7409
461.20,54.7562
461.30,54.7714
461.40,54.7897
461.50,54.8035
461.60,54.8187
461.70,54.8355
461.80,54.8523
461.90,54.8660
462.00,54.8874
462.10,54.9057
462.20,54.9240
462.30,54.9469
462.40,54.9683
462.50,54.9881
462.60,55.0095
462.70,55.0262
462.80,55.0461
462.90,55.0598
463.00,55.0797
463.10,55.0964
463.20,55.1147
463.30,55.1315
463.40,55.1514
463.50,55.1697
463.60,55.1880
463.70,55.2078
463.80,55.2277
463.90,55.2475
464.00,55.2704
464.10,55.2933
464.20,55.3162
464.30,55.3436
464.40,55.3741
464.50,55.4001
464.60,55.4276
464.70,55.4550
464.80,55.4855
464.90,55.5130
465.00,55.5420
465.10,55.5664
465.20,55.5939
465.30,55.6183
465.40,55.6396
465.50,55.6641
465.60,55.6870
465.70,55.7083
465.80,55.7297
465.90,55.7526
466.00,55.7770
466.10,55.8014
466.20,55.8289
466.30,55.8609
466.40,55.8945
466.50,55.9250
466.60,55.9555
466.70,55.9860
466.80,56.0120
466.90,56.0349
467.00,56.0593
467.10,56.0852
467.20,56.1111
467.30,56.1371
467.40,56.1615
467.50,56.1859
467.60,56.2103
467.70,56.2347
467.80,56.2592
467.90,56.2851
468.00,56.3156
468.10,56.3477
468.20,56.3828
468.30,56.4163
468.40,56.4545
468.50,56.4880
468.60,56.5155
468.70,56.5475
468.80,56.5796
468.90,56.6147
469.00,56.6467
469.10,56.6818
469.20,56.7108
469.30,56.7398
469.40,56.7688
469.50,56.7963
469.60,56.8283
469.70,56.8588
469.80,56.8909
469.90,56.9199
470.00,56.9534
470.10,56.9885
470.20,57.0206
470.30,57.0541
470.40,57.0892
470.50,57.1243
470.60,57.1564
470.70,57.1884
470.80,57.2250
470.90,57.2571
471.00,57.2876
471.10,57.3212
471.20,57.3547
471.30,57.3914
471.40,57.4249
471.50,57.4600
471.60,57.4951
471.70,57.5302
471.80,57.5638
471.90,57.5989
472.00,57.6340
472.10,57.6675
472.20,57.7042
472.30,57.7438
472.40,57.7835
472.50,57.8232
472.60,57.8644
472.70,57.9071
472.80,57.9422
472.90,57.9773
473.00,58.0139
473.10,58.0490
473.20,58.0826
473.30,58.1177
473.40,58.1512
473.50,58.1863
473.60,58.2199
473.70,58.2520
473.80,58.2870
473.90,58.3237
474.00,58.3603
474.10,58.3939
474.20,58.4335
474.30,58.4717
474.40,58.5083
474.50,58.5449
474.60,58.5892
474.70,58.6304
474.80,58.6746
474.90,58.7173
475.00,58.7631
475.10,58.8043
475.20,58.8425
475.30,58.8867
475.40,58.9310
475.50,58.9752
475.60,59.0164
475.70,59.0607
475.80,59.1034
475.90,59.1415
476.00,59.1797
476.10,59.2194
476.20,59.2606
476.30,59.2987
476.40,59.3384
476.50,59.3826
476.60,59.4269
476.70,59.4696
476.80,59.5154
476.90,59.5566
477.00,59.5963
477.10,59.6375
477.20,59.6786
477.30,59.7183
477.40,59.7580
477.50,59.7977
477.60,59.8389
477.70,59.8770
477.80,59.9197
477.90,59.9655
478.00,60.0128
478.10,60.0601
478.20,60.1074
478.30,60.1547
478.40,60.2005
478.50,60.2493
478.60,60.2966
478.70,60.3439
478.80,60.3897
478.90,60.4309
479.00,60.4736
479.10,60.5164
479.20,60.5576
479.30,60.6018
479.40,60.6430
479.50,60.6888
479.60,60.7330
479.70,60.7773
479.80,60.8231
479.90,60.8704
480.00,60.9192
480.10,60.9650
480.20,61.0107
480.30,61.0535
480.40,61.0947
480.50,61.1404
480.60,61.1877
480.70,61.2335
480.80,61.2823
480.90,61.3342
481.00,61.3831
481.10,61.4319
481.20,61.4853
481.30,61.5356
481.40,61.5891
481.50,61.6425
481.60,61.6959
481.70,61.7416
481.80,61.7889
481.90,61.8347
482.00,61.8790
482.10,61.9247
482.20,61.9659
482.30,62.0193
482.40,62.0682
482.50,62.1170
482.60,62.1628
482.70,62.2147
482.80,62.2665
482.90,62.3138
483.00,62.3672
483.10,62.4207
483.20,62.4741
483.30,62.5244
483.40,62.5732
483.50,62.6236
483.60,62.6724
483.70,62.7213
483.80,62.7701
483.90,62.8189
484.00,62.8723
484.10,62.9257
484.20,62.9700
484.30,63.0173
484.40,63.0692
484.50,63.1165
484.60,63.1653
484.70,63.2172
484.80,63.2751
484.90,63.3240
485.00,63.3728
485.10,63.4247
485.20,63.4750
485.30,63.5269
485.40,63.5788
485.50,63.6353
485.60,63.6902
485.70,63.7405
485.80,63.7894
485.90,63.8397
486.00,63.8916
486.10,63.9404
486.20,63.9893
486.30,64.0457
486.40,64.1006
486.50,64.1541
486.60,64.2075
486.70,64.2654
486.80,64.3188
486.90,64.3707
487.00,64.4257
487.10,64.4775
487.20,64.5325
487.30,64.5813
487.40,64.6332
487.50,64.6881
487.60,64.7415
487.70,64.7919
487.80,64.8499
487.90,64.9124
488.00,64.9673
488.10,65.0223
488.20,65.0787
488.30,65.1337
488.40,65.1840
488.50,65.2359
488.60,65.2908
488.70,65.3458
488.80,65.4022
488.90,65.4617
489.00,65.5182
489.10,65.5762
489.20,65.6311
489.30,65.6891
489.40,65.7471
489.50,65.8035
489.60,65.8615
489.70,65.9164
489.80,65.9744
489.90,66.0309
490.00,66.0843
490.10,66.1392
490.20,66.1926
490.30,66.2460
490.40,66.3010
490.50,66.3620
490.60,66.4215
490.70,66.4825
490.80,66.5451
490.90,66.6077
491.00,66.6672
491.10,66.7236
491.20,66.7801
491.30,66.8350
491.40,66.8915
491.50,66.9525
491.60,67.0120
491.70,67.0746
491.80,67.1356
491.90,67.1951
492.00,67.2546
492.10,67.3111
492.20,67.3691
492.30,67.4255
492.40,67.4850
492.50,67.5415
492.60,67.5964
492.70,67.6529
492.80,67.7170
492.90,67.7780
493.00,67.8360
493.10,67.8955
493.20,67.9550
493.30,68.0161
493.40,68.0710
493.50,68.1305
493.60,68.1900
493.70,68.2526
493.80,68.3121
493.90,68.3716
494.00,68.4311
494.10,68.4875
494.20,68.5425
494.30,68.5989
494.40,68.6569
494.50,68.7164
494.60,68.7790
494.70,68.8416
494.80,68.9026
494.90,68.9651
495.00,69.0277
495.10,69.0872
495.20,69.1513
495.30,69.2108
495.40,69.2764
495.50,69.3329
495.60,69.3924
495.70,69.4550
495.80,69.5160
495.90,69.5755
496.00,69.6411
496.10,69.7052
496.20,69.7678
496.30,69.8257
496.40,69.8883
496.50,69.9478
496.60,70.0089
496.70,70.0714
496.80,70.1355
496.90,70.1981
497.00,70.2591
497.10,70.3247
497.20,70.3857
497.30,70.4483
497.40,70.5109
497.50,70.5750
497.60,70.6406
497.70,70.7047
497.80,70.7687
497.90,70.8359
498.00,70.9000
498.10,70.9625
498.20,71.0220
498.30,71.0861
498.40,71.1472
498.50,71.2112
498.60,71.2723
498.70,71.3333
498.80,71.3943
498.90,71.4539
499.00,71.5179
499.10,71.5836
499.20,71.6522
499.30,71.7178
499.40,71.7834
499.50,71.8491
499.60,71.9055
499.70,71.9681
499.80,72.0306
499.90,72.0932
500.00,72.1542
500.10,72.2198
500.20,72.2794
500.30,72.3373
500.40,72.3923
500.50,72.4533
500.60,72.5098
500.70,72.5662
500.80,72.6227
500.90,72.6776
501.00,72.7325
501.10,72.7905
501.20,72.8500
501.30,72.9111
501.40,72.9706
501.50,73.0362
501.60,73.0988
501.70,73.1583
501.80,73.2254
501.90,73.2910
502.00,73.3597
502.10,73.4253
502.20,73.4955
502.30,73.5626
502.40,73.6267
502.50,73.6923
502.60,73.7564
502.70,73.8144
502.80,73.8708
502.90,73.9273
503.00,73.9868
503.10,74.0463
503.20,74.1058
503.30,74.1669
503.40,74.2279
503.50,74.2889
503.60,74.3484
503.70,74.4125
503.80,74.4751
503.90,74.5407
504.00,74.6033
504.10,74.6643
504.20,74.7223
504.30,74.7803
504.40,74.8383
504.50,74.8993
504.60,74.9603
504.70,75.0214
504.80,75.0839
504.90,75.1450
505.00,75.2060
505.10,75.2701
505.20,75.3372
505.30,75.4013
505.40,75.4654
505.50,75.5280
505.60,75.5859
505.70,75.6470
505.80,75.7095
505.90,75.7706
506.00,75.8301
506.10,75.8942
506.20,75.9521
506.30,76.0101
506.40,76.0666
506.50,76.1246
506.60,76.1871
506.70,76.2527
506.80,76.3153
506.90,76.3779
507.00,76.4435
507.10,76.5060
507.20,76.5640
507.30,76.6251
507.40,76.6907
507.50,76.7578
507.60,76.8219
507.70,76.8875
507.80,76.9562
507.90,77.0157
508.00,77.0737
508.10,77.1332
508.20,77.1957
508.30,77.2537
508.40,77.3163
508.50,77.3804
508.60,77.4399
508.70,77.4948
508.80,77.5543
508.90,77.6154
509.00,77.6749
509.10,77.7298
509.20,77.7878
509.30,77.8473
509.40,77.9114
509.50,77.9770
509.60,78.0411
509.70,78.1097
509.80,78.1754
509.90,78.2364
510.00,78.2913
510.10,78.3524
510.20,78.4073
510.30,78.4622
510.40,78.5156
510.50,78.5706
510.60,78.6255
510.70,78.6835
510.80,78.7415
510.90,78.7994
511.00,78.8574
511.10,78.9154
511.20,78.9719
511.30,79.0298
511.40,79.0894
511.50,79.1519
511.60,79.2175
511.70,79.2786
511.80,79.3396
511.90,79.3976
512.00,79.4571
512.10,79.5151
512.20,79.5731
512.30,79.6326
512.40,79.6890
512.50,79.7470
512.60,79.8050
512.70,79.8584
512.80,79.9210
512.90,79.9835
513.00,80.0446
513.10,80.1056
513.20,80.1666
513.30,80.2246
513.40,80.2826
513.50,80.3421
513.60,80.4001
513.70,80.4565
513.80,80.5161
513.90,80.5664
514.00,80.6229
514.10,80.6778
514.20,80.7373
514.30,80.7999
514.40,80.8640
514.50,80.9265
514.60,80.9921
514.70,81.0547
514.80,81.1157
514.90,81.1676
515.00,81.2225
515.10,81.2759
515.20,81.3309
515.30,81.3858
515.40,81.4407
515.50,81.4987
515.60,81.5521
515.70,81.6055
515.80,81.6574
515.90,81.7139
516.00,81.7719
516.10,81.8314
516.20,81.8878
516.30,81.9458
516.40,82.0053
516.50,82.0633
516.60,82.1198
516.70,82.1793
516.80,82.2403
516.90,82.2952
517.00,82.3517
517.10,82.4081
517.20,82.4615
517.30,82.5150
517.40,82.5699
517.50,82.6263
517.60,82.6889
517.70,82.7469
517.80,82.8003
517.90,82.8552
518.00,82.9086
518.10,82.9590
518.20,83.0063
518.30,83.0597
518.40,83.1116
518.50,83.1619
518.60,83.2108
518.70,83.2642
518.80,83.3191
518.90,83.3679
519.00,83.4244
519.10,83.4839
519.20,83.5403
519.30,83.5953
519.40,83.6517
519.50,83.7112
519.60,83.7662
519.70,83.8211
519.80,83.8715
519.90,83.9264
520.00,83.9737
520.10,84.0179
520.20,84.0668
520.30,84.1156
520.40,84.1644
520.50,84.2178
520.60,84.2728
520.70,84.3353
520.80,84.3948
520.90,84.4528
521.00,84.5078
521.10,84.5596
521.20,84.6024
521.30,84.6451
521.40,84.6909
521.50,84.7412
521.60,84.7916
521.70,84.8434
521.80,84.8938
521.90,84.9411
522.00,84.9869
522.10,85.0281
522.20,85.0723
522.30,85.1242
522.40,85.1746
522.50,85.2371
522.60,85.2936
522.70,85.3500
522.80,85.4019
522.90,85.4523
523.00,85.4980
523.10,85.5438
523.20,85.5942
523.30,85.6476
523.40,85.7010
523.50,85.7544
523.60,85.8063
523.70,85.8582
523.80,85.9024
523.90,85.9436
524.00,85.9879
524.10,86.0352
524.20,86.0779
524.30,86.1237
524.40,86.1740
524.50,86.2228
524.60,86.2686
524.70,86.3159
524.80,86.3663
524.90,86.4197
525.00,86.4670
525.10,86.5128
525.20,86.5601
525.30,86.6028
525.40,86.6486
525.50,86.6943
525.60,86.7493
525.70,86.8011
525.80,86.8530
525.90,86.9019
526.00,86.9492
526.10,86.9949
526.20,87.0392
526.30,87.0850
526.40,87.1338
526.50,87.1841
526.60,87.2360
526.70,87.2879
526.80,87.3367
526.90,87.3840
527.00,87.4313
527.10,87.4741
527.20,87.5183
527.30,87.5626
527.40,87.6068
527.50,87.6450
527.60,87.6907
527.70,87.7304
527.80,87.7747
527.90,87.8204
528.00,87.8632
528.10,87.9074
528.20,87.9501
528.30,87.9898
528.40,88.0295
528.50,88.0768
528.60,88.1226
528.70,88.1653
528.80,88.2141
528.90,88.2599
529.00,88.3057
529.10,88.3469
529.20,88.3865
529.30,88.4247
529.40,88.4659
529.50,88.5071
529.60,88.5529
529.70,88.6017
529.80,88.6536
529.90,88.7039
530.00,88.7512
530.10,88.7955
530.20,88.8336
530.30,88.8718
530.40,88.9145
530.50,88.9587
530.60,88.9969
530.70,89.0472
530.80,89.1006
530.90,89.1434
531.00,89.1815
531.10,89.2227
531.20,89.2624
531.30,89.3005
531.40,89.3448
531.50,89.3875
531.60,89.4302
531.70,89.4714
531.80,89.5172
531.90,89.5615
532.00,89.6027
532.10,89.6469
532.20,89.6942
532.30,89.7400
532.40,89.7842
532.50,89.8270
532.60,89.8682
532.70,89.9078
532.80,89.9475
532.90,89.9811
533.00,90.0192
533.10,90.0558
533.20,90.0986
533.30,90.1413
533.40,90.1840
533.50,90.2267
533.60,90.2634
533.70,90.3061
533.80,90.3473
533.90,90.3854
534.00,90.4236
534.10,90.4678
534.20,90.5121
534.30,90.5594
534.40,90.6021
534.50,90.6448
534.60,90.6876
534.70,90.7303
534.80,90.7715
534.90,90.8081
535.00,90.8569
535.10,90.9058
535.20,90.9470
535.30,90.9943
535.40,91.0431
535.50,91.0873
535.60,91.1240
535.70,91.1621
535.80,91.1987
535.90,91.2399
536.00,91.2796
536.10,91.3147
536.20,91.3498
536.30,91.4001
536.40,91.4246
536.50,91.4520
536.60,91.4825
536.70,91.5131
536.80,91.5390
536.90,91.5695
537.00,91.5985
537.10,91.6306
537.20,91.6611
537.30,91.6962
537.40,91.7343
537.50,91.7709
537.60,91.8060
537.70,91.8442
537.80,91.8808
537.90,91.9144
538.00,91.9434
538.10,91.9754
538.20,92.0135
538.30,92.0502
538.40,92.0898
538.50,92.1295
538.60,92.1707
538.70,92.2073
538.80,92.2363
538.90,92.2668
539.00,92.3019
539.10,92.3401
539.20,92.3737
539.30,92.4103
539.40,92.4500
539.50,92.4866
539.60,92.5186
539.70,92.5537
539.80,92.5858
539.90,92.6224
540.00,92.6559
540.10,92.6910
540.20,92.7246
540.30,92.7612
540.40,92.7979
540.50,92.8314
540.60,92.8635
540.70,92.8940
540.80,92.9230
540.90,92.9504
541.00,92.9810
541.10,93.0176
541.20,93.0527
541.30,93.0878
541.40,93.1229
541.50,93.1641
541.60,93.1961
541.70,93.2266
541.80,93.2571
541.90,93.2861
542.00,93.3136
542.10,93.3426
542.20,93.3823
542.30,93.4204
542.40,93.4586
542.50,93.4982
542.60,93.5364
542.70,93.5715
542.80,93.6020
542.90,93.6371
543.00,93.6783
543.10,93.7134
543.20,93.7500
543.30,93.7820
543.40,93.8141
543.50,93.8354
543.60,93.8599
543.70,93.8858
543.80,93.9133
543.90,93.9377
544.00,93.9651
544.10,93.9911
544.20,94.0186
544.30,94.0521
544.40,94.0811
544.50,94.1132
544.60,94.1452
544.70,94.1757
544.80,94.1986
544.90,94.2230
545.00,94.2535
545.10,94.2825
545.20,94.3115
545.30,94.3405
545.40,94.3695
545.50,94.3954
545.60,94.4244
545.70,94.4489
545.80,94.4794
545.90,94.5068
546.00,94.5328
546.10,94.5618
546.20,94.5908
546.30,94.6152
546.40,94.6426
546.50,94.6671
546.60,94.6899
546.70,94.7144
546.80,94.7388
546.90,94.7647
547.00,94.7891
547.10,94.8227
547.20,94.8502
547.30,94.8746
547.40,94.8990
547.50,94.9249
547.60,94.9478
547.70,94.9738
547.80,95.0058
547.90,95.0409
548.00,95.0760
548.10,95.1080
548.20,95.1370
548.30,95.1614
548.40,95.1828
548.50,95.1996
548.60,95.2179
548.70,95.2408
548.80,95.2667
548.90,95.2927
549.00,95.3201
549.10,95.3445
549.20,95.3674
549.30,95.3857
549.40,95.4056
549.50,95.4208
549.60,95.4407
549.70,95.4590
549.80,95.4849
549.90,95.5093
550.00,95.5322
550.10,95.5551
550.20,95.5780
550.30,95.6009
550.40,95.6238
550.50,95.6451
550.60,95.6680
550.70,95.6909
550.80,95.7123
550.90,95.7336
551.00,95.7596
551.10,95.7840
551.20,95.8069
551.30,95.8298
551.40,95.8557
551.50,95.8740
551.60,95.8954
551.70,95.9229
551.80,95.9564
551.90,95.9869
552.00,96.0220
552.10,96.0541
552.20,96.0785
552.30,96.1029
552.40,96.1258
552.50,96.1456
552.60,96.1655
552.70,96.1868
552.80,96.2082
552.90,96.2265
553.00,96.2448
553.10,96.2601
553.20,96.2784
553.30,96.2967
553.40,96.3089
553.50,96.3257
553.60,96.3409
553.70,96.3531
553.80,96.3669
553.90,96.3867
554.00,96.4066
554.10,96.4233
554.20,96.4432
554.30,96.4661
554.40,96.4844
554.50,96.5057
554.60,96.5225
554.70,96.5454
554.80,96.5652
554.90,96.5866
555.00,96.6080
555.10,96.6309
555.20,96.6537
555.30,96.6736
555.40,96.6949
555.50,96.7148
555.60,96.7331
555.70,96.7529
555.80,96.7773
555.90,96.7987
556.00,96.8170
556.10,96.8338
556.20,96.8506
556.30,96.8658
556.40,96.8857
556.50,96.9086
556.60,96.9330
556.70,96.9513
556.80,96.9696
556.90,96.9894
557.00,97.0032
557.10,97.0169
557.20,97.0322
557.30,97.0459
557.40,97.0627
557.50,97.0749
557.60,97.0901
557.70,97.1039
557.80,97.1222
557.90,97.1375
558.00,97.1542
558.10,97.1725
558.20,97.1863
558.30,97.2061
558.40,97.2260
558.50,97.2412
558.60,97.2565
558.70,97.2717
558.80,97.2916
558.90,97.3053
559.00,97.3221
559.10,97.3373
559.20,97.3541
559.30,97.3709
559.40,97.3892
559.50,97.4091
559.60,97.4274
559.70,97.4472
559.80,97.4670
559.90,97.4869
560.00,97.5037
560.10,97.5189
560.20,97.5388
560.30,97.5555
560.40,97.5677
560.50,97.5830
560.60,97.5983
560.70,97.6135
560.80,97.6212
560.90,97.6364
561.00,97.6486
561.10,97.6654
561.20,97.6837
561.30,97.7005
561.40,97.7188
561.50,97.7386
561.60,97.7524
561.70,97.7615
561.80,97.7707
561.90,97.7829
562.00,97.7890
562.10,97.7997
562.20,97.8165
562.30,97.8302
562.40,97.8470
562.50,97.8638
562.60,97.8836
562.70,97.9004
562.80,97.9141
562.90,97.9263
563.00,97.9340
563.10,97.9401
563.20,97.9416
563.30,97.9553
563.40,97.9691
563.50,97.9843
563.60,98.0011
563.70,98.0164
563.80,98.0286
563.90,98.0362
564.00,98.0453
564.10,98.0545
564.20,98.0637
564.30,98.0804
564.40,98.0942
564.50,98.1018
564.60,98.1125
564.70,98.1216
564.80,98.1308
564.90,98.1384
565.00,98.1552
565.10,98.1705
565.20,98.1857
565.30,98.2025
565.40,98.2147
565.50,98.2300
565.60,98.2452
565.70,98.2559
565.80,98.2681
565.90,98.2819
566.00,98.2971
566.10,98.3047
566.20,98.3185
566.30,98.3307
566.40,98.3414
566.50,98.3521
566.60,98.3643
566.70,98.3795
566.80,98.3902
566.90,98.4070
567.00,98.4222
567.10,98.4360
567.20,98.4482
567.30,98.4604
567.40,98.4726
567.50,98.4818
567.60,98.4940
567.70,98.5001
567.80,98.5138
567.90,98.5245
568.00,98.5352
568.10,98.5428
568.20,98.5519
568.30,98.5596
568.40,98.5657
568.50,98.5794
568.60,98.5992
568.70,98.6130
568.80,98.6237
568.90,98.6389
569.00,98.6542
569.10,98.6618
569.20,98.6664
569.30,98.6694
569.40,98.6740
569.50,98.6710
569.60,98.6755
569.70,98.6816
569.80,98.6893
569.90,98.7045
570.00,98.7167
570.10,98.7289
570.20,98.7411
570.30,98.7564
570.40,98.7656
570.50,98.7762
570.60,98.7885
570.70,98.7946
570.80,98.8022
570.90,98.8113
571.00,98.8205
571.10,98.8251
571.20,98.8312
571.30,98.8373
571.40,98.8464
571.50,98.8586
571.60,98.8693
571.70,98.8785
571.80,98.8876
571.90,98.8983
572.00,98.9075
572.10,98.9120
572.20,98.9151
572.30,98.9273
572.40,98.9365
572.50,98.9441
572.60,98.9487
572.70,98.9578
572.80,98.9639
572.90,98.9685
573.00,98.9731
573.10,98.9731
573.20,98.9746
573.30,98.9807
573.40,98.9883
573.50,98.9899
573.60,98.9929
573.70,99.0036
573.80,99.0143
573.90,99.0219
574.00,99.0280
574.10,99.0387
574.20,99.0479
574.30,99.0570
574.40,99.0616
574.50,99.0768
574.60,99.0952
574.70,99.1089
574.80,99.1180
574.90,99.1287
575.00,99.1364
575.10,99.1425
575.20,99.1455
575.30,99.1486
575.40,99.1547
575.50,99.1653
575.60,99.1730
575.70,99.1821
575.80,99.1913
575.90,99.1989
576.00,99.2050
576.10,99.2035
576.20,99.2035
576.30,99.2065
576.40,99.2126
576.50,99.2126
576.60,99.2172
576.70,99.2218
576.80,99.2264
576.90,99.2249
577.00,99.2325
577.10,99.2355
577.20,99.2432
577.30,99.2493
577.40,99.2538
577.50,99.2599
577.60,99.2661
577.70,99.2691
577.80,99.2752
577.90,99.2828
578.00,99.2889
578.10,99.2950
578.20,99.3027
578.30,99.3118
578.40,99.3179
578.50,99.3225
578.60,99.3301
578.70,99.3378
578.80,99.3423
578.90,99.3454
579.00,99.3469
579.10,99.3484
579.20,99.3515
579.30,99.3546
579.40,99.3591
579.50,99.3698
579.60,99.3805
579.70,99.3881
579.80,99.3973
579.90,99.4034
580.00,99.4064
580.10,99.4049
580.20,99.4110
580.30,99.4156
580.40,99.4171
580.50,99.4217
580.60,99.4308
580.70,99.4385
580.80,99.4354
580.90,99.4370
581.00,99.4431
581.10,99.4476
581.20,99.4507
581.30,99.4522
581.40,99.4568
581.50,99.4568
581.60,99.4568
581.70,99.4553
581.80,99.4537
581.90,99.4614
582.00,99.4675
582.10,99.4736
582.20,99.4812
582.30,99.4873
582.40,99.4873
582.50,99.4873
582.60,99.4904
582.70,99.4934
582.80,99.4995
582.90,99.5041
583.00,99.5087
583.10,99.5163
583.20,99.5209
583.30,99.5300
583.40,99.5346
583.50,99.5438
583.60,99.5529
583.70,99.5575
583.80,99.5560
583.90,99.5529
584.00,99.5499
584.10,99.5483
584.20,99.5529
584.30,99.5575
584.40,99.5605
584.50,99.5667
584.60,99.5682
584.70,99.5651
584.80,99.5605
584.90,99.5621
585.00,99.5605
585.10,99.5636
585.20,99.5697
585.30,99.5697
585.40,99.5651
585.50,99.5621
585.60,99.5651
585.70,99.5544
585.80,99.5529
585.90,99.5560
586.00,99.5605
586.10,99.5651
586.20,99.5712
586.30,99.5773
586.40,99.5850
586.50,99.5941
586.60,99.5987
586.70,99.5972
586.80,99.5987
586.90,99.6002
587.00,99.5972
587.10,99.6002
587.20,99.6048
587.30,99.6094
587.40,99.6124
587.50,99.6170
587.60,99.6231
587.70,99.6323
587.80,99.6414
587.90,99.6475
588.00,99.6536
588.10,99.6582
588.20,99.6582
588.30,99.6582
588.40,99.6582
588.50,99.6567
588.60,99.6567
588.70,99.6628
588.80,99.6628
588.90,99.6613
589.00,99.6643
589.10,99.6689
589.20,99.6689
589.30,99.6689
589.40,99.6735
589.50,99.6750
589.60,99.6735
589.70,99.6735
589.80,99.6719
589.90,99.6658
590.00,99.6658
590.10,99.6658
590.20,99.6628
590.30,99.6643
590.40,99.6597
590.50,99.6597
590.60,99.6613
590.70,99.6689
590.80,99.6658
590.90,99.6704
591.00,99.6735
591.10,99.6750
591.20,99.6750
591.30,99.6735
591.40,99.6735
591.50,99.6719
591.60,99.6750
591.70,99.6750
591.80,99.6765
591.90,99.6826
592.00,99.6887
592.10,99.6933
592.20,99.6979
592.30,99.7040
592.40,99.7025
592.50,99.7025
592.60,99.7055
592.70,99.7070
592.80,99.7055
592.90,99.7101
593.00,99.7192
593.10,99.7192
593.20,99.7208
593.30,99.7208
593.40,99.7177
593.50,99.7147
593.60,99.7101
593.70,99.7086
593.80,99.7086
593.90,99.7131
594.00,99.7162
594.10,99.7147
594.20,99.7147
594.30,99.7147
594.40,99.7131
594.50,99.7131
594.60,99.7131
594.70,99.7177
594.80,99.7223
594.90,99.7269
595.00,99.7284
595.10,99.7314
595.20,99.7345
595.30,99.7360
595.40,99.7360
595.50,99.7360
595.60,99.7375
595.70,99.7360
595.80,99.7375
595.90,99.7421
596.00,99.7467
596.10,99.7528
596.20,99.7574
596.30,99.7604
596.40,99.7604
596.50,99.7620
596.60,99.7635
596.70,99.7604
596.80,99.7604
596.90,99.7665
597.00,99.7635
597.10,99.7620
597.20,99.7635
597.30,99.7650
597.40,99.7635
597.50,99.7711
597.60,99.7772
597.70,99.7803
597.80,99.7803
597.90,99.7787
598.00,99.7772
598.10,99.7757
598.20,99.7757
598.30,99.7787
598.40,99.7849
598.50,99.7833
598.60,99.7818
598.70,99.7803
598.80,99.7742
598.90,99.7726
599.00,99.7665
599.10,99.7620
599.20,99.7589
599.30,99.7543
599.40,99.7528
599.50,99.7543
599.60,99.7604
599.70,99.7635
599.80,99.7681
599.90,99.7650
600.00,99.7650
600.10,99.7589
600.20,99.7543
600.30,99.7574
600.40,99.7604
600.50,99.7650
600.60,99.7696
600.70,99.7803
600.80,99.7833
600.90,99.7833
601.00,99.7833
601.10,99.7894
601.20,99.7894
601.30,99.7910
601.40,99.7971
601.50,99.8001
601.60,99.8016
601.70,99.8001
601.80,99.7971
601.90,99.7971
602.00,99.7971
602.10,99.7986
602.20,99.8032
602.30,99.8062
602.40,99.8123
602.50,99.8184
602.60,99.8169
602.70,99.8138
602.80,99.8138
602.90,99.8138
603.00,99.8108
603.10,99.8108
603.20,99.8184
603.30,99.8199
603.40,99.8184
603.50,99.8169
603.60,99.8184
603.70,99.8154
603.80,99.8154
603.90,99.8169
604.00,99.8230
604.10,99.8199
604.20,99.8199
604.30,99.8199
604.40,99.8199
604.50,99.8215
604.60,99.8215
604.70,99.8291
604.80,99.8291
604.90,99.8291
605.00,99.8291
605.10,99.8306
605.20,99.8291
605.30,99.8276
605.40,99.8260
605.50,99.8245
605.60,99.8230
605.70,99.8245
605.80,99.8260
605.90,99.8260
606.00,99.8230
606.10,99.8184
606.20,99.8199
606.30,99.8245
606.40,99.8276
606.50,99.8337
606.60,99.8459
606.70,99.8550
606.80,99.8550
606.90,99.8535
607.00,99.8550
607.10,99.8550
607.20,99.8489
607.30,99.8459
607.40,99.8383
607.50,99.8337
607.60,99.8291
607.70,99.8230
607.80,99.8184
607.90,99.8184
608.00,99.8215
608.10,99.8230
608.20,99.8245
608.30,99.8276
608.40,99.8306
608.50,99.8245
608.60,99.8230
608.70,99.8215
608.80,99.8215
608.90,99.8230
609.00,99.8260
609.10,99.8291
609.20,99.8322
609.30,99.8337
609.40,99.8367
609.50,99.8398
609.60,99.8428
609.70,99.8459
609.80,99.8489
609.90,99.8505
610.00,99.8535
610.10,99.8581
610.20,99.8596
610.30,99.8566
610.40,99.8535
610.50,99.8505
610.60,99.8489
610.70,99.8444
610.80,99.8428
610.90,99.8428
611.00,99.8413
611.10,99.8398
611.20,99.8383
611.30,99.8413
611.40,99.8444
611.50,99.8520
611.60,99.8566
611.70,99.8581
611.80,99.8596
611.90,99.8611
612.00,99.8611
612.10,99.8627
612.20,99.8657
612.30,99.8688
612.40,99.8718
612.50,99.8718
612.60,99.8718
612.70,99.8703
612.80,99.8718
612.90,99.8749
613.00,99.8764
613.10,99.8749
613.20,99.8734
613.30,99.8734
613.40,99.8718
613.50,99.8718
613.60,99.8749
613.70,99.8779
613.80,99.8795
613.90,99.8749
614.00,99.8734
614.10,99.8749
614.20,99.8688
614.30,99.8642
614.40,99.8611
614.50,99.8566
614.60,99.8444
614.70,99.8337
614.80,99.8291
614.90,99.8230
615.00,99.8184
615.10,99.8215
615.20,99.8215
615.30,99.8230
615.40,99.8260
615.50,99.8291
615.60,99.8276
615.70,99.8337
615.80,99.8398
615.90,99.8428
616.00,99.8505
616.10,99.8581
616.20,99.8596
616.30,99.8581
616.40,99.8550
616.50,99.8566
616.60,99.8596
616.70,99.8627
616.80,99.8642
616.90,99.8718
617.00,99.8718
617.10,99.8734
617.20,99.8703
617.30,99.8688
617.40,99.8672
617.50,99.8688
617.60,99.8657
617.70,99.8688
617.80,99.8718
617.90,99.8749
618.00,99.8718
618.10,99.8688
618.20,99.8672
618.30,99.8611
618.40,99.8535
618.50,99.8520
618.60,99.8520
618.70,99.8520
618.80,99.8505
618.90,99.8535
619.00,99.8505
619.10,99.8520
619.20,99.8520
619.30,99.8489
619.40,99.8489
619.50,99.8428
619.60,99.8459
619.70,99.8428
619.80,99.8459
619.90,99.8459
620.00,99.8474
620.10,99.8489
620.20,99.8520
620.30,99.8535
620.40,99.8566
620.50,99.8596
620.60,99.8611
620.70,99.8642
620.80,99.8672
620.90,99.8657
621.00,99.8627
621.10,99.8627
621.20,99.8581
621.30,99.8566
621.40,99.8535
621.50,99.8535
621.60,99.8535
621.70,99.8535
621.80,99.8520
621.90,99.8520
622.00,99.8520
622.10,99.8535
622.20,99.8520
622.30,99.8505
622.40,99.8505
622.50,99.8505
622.60,99.8550
622.70,99.8505
622.80,99.8474
622.90,99.8428
623.00,99.8413
623.10,99.8413
623.20,99.8398
623.30,99.8428
623.40,99.8459
623.50,99.8505
623.60,99.8489
623.70,99.8474
623.80,99.8459
623.90,99.8474
624.00,99.8474
624.10,99.8444
624.20,99.8505
624.30,99.8535
624.40,99.8550
624.50,99.8550
624.60,99.8611
624.70,99.8611
624.80,99.8581
624.90,99.8581
625.00,99.8566
625.10,99.8566
625.20,99.8535
625.30,99.8505
625.40,99.8444
625.50,99.8398
625.60,99.8306
625.70,99.8245
625.80,99.8199
625.90,99.8154
626.00,99.8169
626.10,99.8245
626.20,99.8322
626.30,99.8383
626.40,99.8413
626.50,99.8444
626.60,99.8413
626.70,99.8383
626.80,99.8337
626.90,99.8352
627.00,99.8337
627.10,99.8383
627.20,99.8413
627.30,99.8413
627.40,99.8428
627.50,99.8413
627.60,99.8413
627.70,99.8428
627.80,99.8444
627.90,99.8428
628.00,99.8459
628.10,99.8505
628.20,99.8505
628.30,99.8474
628.40,99.8489
628.50,99.8550
628.60,99.8581
628.70,99.8596
628.80,99.8611
628.90,99.8596
629.00,99.8566
629.10,99.8535
629.20,99.8535
629.30,99.8489
629.40,99.8444
629.50,99.8444
629.60,99.8413
629.70,99.8383
629.80,99.8367
629.90,99.8367
630.00,99.8322
630.10,99.8322
630.20,99.8306
630.30,99.8276
630.40,99.8291
630.50,99.8322
630.60,99.8352
630.70,99.8337
630.80,99.8367
630.90,99.8367
631.00,99.8367
631.10,99.8398
631.20,99.8444
631.30,99.8489
631.40,99.8489
631.50,99.8520
631.60,99.8520
631.70,99.8535
631.80,99.8474
631.90,99.8444
632.00,99.8413
632.10,99.8367
632.20,99.8352
632.30,99.8383
632.40,99.8428
632.50,99.8459
632.60,99.8428
632.70,99.8413
632.80,99.8383
632.90,99.8337
633.00,99.8337
633.10,99.8383
633.20,99.8413
633.30,99.8428
633.40,99.8444
633.50,99.8520
633.60,99.8550
633.70,99.8566
633.80,99.8581
633.90,99.8688
634.00,99.8703
634.10,99.8703
634.20,99.8688
634.30,99.8642
634.40,99.8581
634.50,99.8520
634.60,99.8489
634.70,99.8474
634.80,99.8505
634.90,99.8535
635.00,99.8596
635.10,99.8550
635.20,99.8489
635.30,99.8459
635.40,99.8474
635.50,99.8459
635.60,99.8413
635.70,99.8444
635.80,99.8444
635.90,99.8398
636.00,99.8383
636.10,99.8398
636.20,99.8444
636.30,99.8459
636.40,99.8505
636.50,99.8535
636.60,99.8581
636.70,99.8566
636.80,99.8596
636.90,99.8611
637.00,99.8550
637.10,99.8520
637.20,99.8489
637.30,99.8413
637.40,99.8367
637.50,99.8322
637.60,99.8322
637.70,99.8322
637.80,99.8352
637.90,99.8413
638.00,99.8459
638.10,99.8459
638.20,99.8489
638.30,99.8474
638.40,99.8428
638.50,99.8413
638.60,99.8459
638.70,99.8520
638.80,99.8535
638.90,99.8550
639.00,99.8581
639.10,99.8611
639.20,99.8581
639.30,99.8596
639.40,99.8611
639.50,99.8627
639.60,99.8611
639.70,99.8611
639.80,99.8627
639.90,99.8627
640.00,99.8657
640.10,99.8657
640.20,99.8642
640.30,99.8657
640.40,99.8672
640.50,99.8672
640.60,99.8642
640.70,99.8611
640.80,99.8581
640.90,99.8535
641.00,99.8535
641.10,99.8566
641.20,99.8627
641.30,99.8703
641.40,99.8779
641.50,99.8795
641.60,99.8810
641.70,99.8779
641.80,99.8718
641.90,99.8672
642.00,99.8672
642.10,99.8627
642.20,99.8611
642.30,99.8611
642.40,99.8657
642.50,99.8657
642.60,99.8688
642.70,99.8703
642.80,99.8734
642.90,99.8764
643.00,99.8795
643.10,99.8810
643.20,99.8779
643.30,99.8764
643.40,99.8734
643.50,99.8688
643.60,99.8657
643.70,99.8627
643.80,99.8611
643.90,99.8627
644.00,99.8627
644.10,99.8627
644.20,99.8611
644.30,99.8611
644.40,99.8550
644.50,99.8505
644.60,99.8505
644.70,99.8505
644.80,99.8550
644.90,99.8550
645.00,99.8581
645.10,99.8596
645.20,99.8611
645.30,99.8627
645.40,99.8627
645.50,99.8672
645.60,99.8657
645.70,99.8672
645.80,99.8734
645.90,99.8795
646.00,99.8886
646.10,99.8901
646.20,99.8962
646.30,99.8932
646.40,99.8840
646.50,99.8764
646.60,99.8734
646.70,99.8718
646.80,99.8688
646.90,99.8672
647.00,99.8657
647.10,99.8611
647.20,99.8550
647.30,99.8550
647.40,99.8550
647.50,99.8535
647.60,99.8581
647.70,99.8581
647.80,99.8642
647.90,99.8642
648.00,99.8657
648.10,99.8657
648.20,99.8627
648.30,99.8611
648.40,99.8611
648.50,99.8611
648.60,99.8611
648.70,99.8642
648.80,99.8688
648.90,99.8703
649.00,99.8718
649.10,99.8764
649.20,99.8795
649.30,99.8840
649.40,99.8886
649.50,99.8917
649.60,99.8947
649.70,99.8947
649.80,99.8917
649.90,99.8886
650.00,99.8871
